tree
version=v4
num_class=5
num_tree_per_iteration=5
label_index=0
max_feature_idx=119
objective=multiclass num_class:5
feature_names=Column_0 Column_1 Column_2 Column_3 Column_4 Column_5 Column_6 Column_7 Column_8 Column_9 Column_10 Column_11 Column_12 Column_13 Column_14 Column_15 Column_16 Column_17 Column_18 Column_19 Column_20 Column_21 Column_22 Column_23 Column_24 Column_25 Column_26 Column_27 Column_28 Column_29 Column_30 Column_31 Column_32 Column_33 Column_34 Column_35 Column_36 Column_37 Column_38 Column_39 Column_40 Column_41 Column_42 Column_43 Column_44 Column_45 Column_46 Column_47 Column_48 Column_49 Column_50 Column_51 Column_52 Column_53 Column_54 Column_55 Column_56 Column_57 Column_58 Column_59 Column_60 Column_61 Column_62 Column_63 Column_64 Column_65 Column_66 Column_67 Column_68 Column_69 Column_70 Column_71 Column_72 Column_73 Column_74 Column_75 Column_76 Column_77 Column_78 Column_79 Column_80 Column_81 Column_82 Column_83 Column_84 Column_85 Column_86 Column_87 Column_88 Column_89 Column_90 Column_91 Column_92 Column_93 Column_94 Column_95 Column_96 Column_97 Column_98 Column_99 Column_100 Column_101 Column_102 Column_103 Column_104 Column_105 Column_106 Column_107 Column_108 Column_109 Column_110 Column_111 Column_112 Column_113 Column_114 Column_115 Column_116 Column_117 Column_118 Column_119
feature_infos=[-0.81752024009200308:0.47880732271796339] [-0.63701642892695853:0.58062025911883242] [-0.6807174091522824:0.46434476767870109] [-0.27660037846616925:0.52158479935407775] [-0.38184694912435713:0.43821028898106568] [-0.27172398848150836:0.29580686696507213] [-0.29626582101838328:0.37429959530342261] [-0.39824457540364344:0.29872010836385599] [-0.2267717169591294:0.45247821660200493] [-0.26018572261204864:0.43462770165475434] [-0.22663824170963764:0.44968537537762493] [-0.22746470349191:0.6185698071458483] [-0.26900095962270482:0.31604524719692406] [-0.36140600010873902:0.37053821280173138] [-0.31999083983124443:0.24881496592229932] [-0.29019086399744398:0.50949710408577809] [-0.18380618189299913:0.22112723908237888] [-0.18193670065929779:0.37751737774099831] [-0.2351327576323895:0.34817031349620642] [-0.24340492579637821:0.26587378432159536] [-0.24230332686215866:0.30392137321945695] [-0.18958215942295459:0.35269645957444767] [-0.24976895668206764:0.25919391946855025] [-0.21045053991402213:0.40703134595392665] [-0.24740549332044959:0.26260991350243285] [-0.25005640985948124:0.41693782160090836] [-0.37796572148807761:0.38898399858349231] [-0.26200614875261302:0.34840978105986842] [-0.26256695032519961:0.27884241038634083] [-0.32399671848842582:0.36896846460787663] [-0.23453786851878752:0.26761916765875365] [-0.17757736222625586:0.27477175778739577] [-0.38511944631611944:0.40696827759152071] [-0.14041622277232413:0.2236633711817701] [-0.19744144111314094:0.33390359353177274] [-0.14116867155535523:0.24218861077629505] [-0.23890169370758588:0.34448064677948409] [-0.25887658719419943:0.19269169459778826] [-0.24712754659504724:0.29713236553858557] [-0.18537737204563537:0.29349871350986373] [-0.18910894567402858:0.19503017561095085] [-0.31633678628836787:0.32072833313407556] [-0.16806136413069447:0.23934082303985663] [-0.25288670766084487:0.1602908739947787] [-0.19812840007318991:0.16731747394257004] [-0.2311100650714584:0.18910233648308955] [-0.23539746102280537:0.2397070491301499] [-0.23301222783380765:0.25517322097719242] [-0.21772587284433698:0.2720918953275685] [-0.24625692625759146:0.24142004220954058] [-0.20496713026894892:0.17255762209467607] [-0.19267387271239464:0.20370201028234225] [-0.22285956752588348:0.17674100784619715] [-0.19395819821727847:0.2600590003650638] [-0.18326295020443972:0.2587703709155964] [-0.22022795163410186:0.27194994263122163] [-0.22468171768240064:0.26773483429039863] [-0.1858219968238895:0.17167779439497652] [-0.19989142495992729:0.24901636307067743] [-0.23668059962747154:0.24144365251021421] [-0.2381176719257827:0.32111455523265203] [-0.22329917299709726:0.27930889348655641] [-0.21706450755018283:0.20406325369349521] [-0.17029559126316041:0.2158630601205902] [-0.19975416653553354:0.38309054414800792] [-0.13441418728536134:0.16928140487471291] [-0.15431053980877299:0.3409146194893703] [-0.17892300515853202:0.166464233715857] [-0.15618252398105417:0.26882553614718685] [-0.14426447997698014:0.23272455763557287] [-0.18969105940478784:0.25603893137919581] [-0.21221425345178982:0.22126244045067009] [-0.19223856784019908:0.25240341125568533] [-0.21321310916318315:0.1924740699564686] [-0.16185471725954961:0.24819592314256519] [-0.16612296145095673:0.17759671620137024] [-0.2320822196587029:0.23678433603868182] [-0.16480293667330581:0.21079811295919038] [-0.18727135241190487:0.22150071969429508] [-0.17397701783917799:0.17924129573826217] [-0.23308882515770571:0.21968600943092695] [-0.23667400574052361:0.26971364734516162] [-0.18772061616364527:0.21249610984782166] [-0.13112939482430444:0.24079771746552178] [-0.16199203502706971:0.31857787811556199] [-0.19807242519452686:0.24993229748661322] [-0.20510088560587741:0.17425935473100723] [-0.23425602575652685:0.23461047882620895] [-0.19312687899693254:0.17577552394847357] [-0.18691956955126085:0.26942262461724237] [-0.26144817063281872:0.28120161203473021] [-0.13980764081286556:0.2877534451371736] [-0.15848138386649374:0.20312313788564162] [-0.12815094767469323:0.19608649030628864] [-0.19259980067629331:0.13317859669973989] [-0.1730604712491621:0.25367402358312546] [-0.15925874871162235:0.20764635001767034] [-0.21598024672730776:0.22898556867780306] [-0.17924819646096837:0.18946118826690453] [-0.18546244113986229:0.23533631188385293] [-0.18981713461261476:0.16376737182816539] [-0.17357550098844376:0.28984637711963279] [-0.18211447486842:0.20339534896324171] [-0.20081137171734414:0.2031915691857647] [-0.18782337028809601:0.2402978816199402] [-0.15142236065990208:0.19141843007799225] [-0.16548774493582211:0.14359074654625964] [-0.22199386418856459:0.25931449766742737] [-0.18855249962989168:0.25220362401240454] [-0.19477498058021689:0.3102213447742293] [-0.23668235877793403:0.1813564448953193] [-0.15019843089524199:0.22362872181117444] [-0.16284951674493242:0.17425435373527551] [-0.30881250476479388:0.28260713892815553] [-0.2485209158499381:0.25185999249102003] [-0.24114676278984956:0.27577422834240051] [-0.25123611628051062:0.2934959525946047] [-0.22766075483588222:0.26817592852999489] [-0.22337418862154876:0.17256215646333461] [-0.20623597643107855:0.23305619836026722]
tree_sizes=444 536 546 447 443 554 657 663 551 557 556 661 554 551 554 661 656 662 556 556 553 657 657 560 555 554 554 661 658 554 556 659 661 557 555 555 555 659 560 555 553 656 553 561 662 655 659 554 660 655 661 653 661 454 554 660 551 556 455 550 765 654 663 551 558 663 551 557 562 556 662 554 663 549 555 666 657 554 561 661 551 654 661 548 556 668 547 561 558 557 666 661 658 657 659 557 656 556 562 658 664 558 551 555 556 665 555 663 565 662 670 447 448 450 658 661 670 557 664 665 555 556 558 567 658 551 772 669 554 657 667 555 551 567 661 663 664 664 555 664 664 662 558 567 551 561 556 556 658 559 780 556 554 556 776 777 664 554 564 667 554 560 670 556 666 783 665 665 675 779 564 561 674 557 668 667 668 559 664 564 780 561 562 677 779 562 669 780 558 558 781 564 565 676 671 771 672 670 559 454 662 675 677 452 668 670 559 555 665 563 560 664 781 677 675 678 564 784 561 671 670 563 678 562 670 784 675 781 675 786 668 563 565 669 561 456 676 676 672 676 554 565 672 679 562 558 558 564 567 568 792 565 678 565 785 782 663 786 573 563 670 566 567 673 672 786 671 673 560 562 562 674 783 572 672 567 564 570 673 788 670 566 567 684 566 790 674 673 566 569 676 675 569 563 789 571 562 678 574 567 789 563 902 562 791 562 569 568 575 673 563 682 569 576 672 788 790 684 564 789 564 572 793 568 678 569 462 570 567 684 786 568 678 576 566 678 680 798 682 684 563 569 680 577 682 793 572 685 682 571 791 792 677 682 682 678 681 788 577 680 568 567 687 570 573 569 685 572 577 678 796 680 685 682 575 571 574 682 678 684 680 676 574 575 794 680 465 683 681 574 570 570 686 572 792 679 681 796 693 684 682 685 799 572 683 574 688 574 572 572 576 797 571 683 684 800 463 575 579 682 683 683 683 573 796 801 570 802 580 681 574 576 691 680 568 578 799 574 684 578 693 574 576 798 682 689 799 686 579 574 569 578 694 697 911 689 688 806 685 694 801 691 799 575 571 576 797 799 695 576 806 690 689 690 576 572 577 799 577 803 689 686 918 698 576 687 689 579 575 577 693 689 694 798 577 800 692 579 700 691 917 577 688 575 913 691 576 697 695 692 579 579 695 582 576 688 469 578 584 804 802 580 696 578 916 692 807 697 584 694 690 691 581 584 581 468 803 700 584 583 584 694 698 577 809 688 692 582 583 580 578 471 696 580 694 694 584 692 587 808 576 801 812 468 585 689 583 585 806 583 585 582 809 693 584 578 581 701 804 581 579 696 806 582 471 694 584 697 581 810 580 695 695 588 811 468 700 583 355 700 695 584 584 583 699 582 585 588 355 695 587 812 587 583 584 581 582 471 581 586 473 697 586 355 587 353 587 582 474 587 585 697 586 582 470 584 585 586 356 587 474 588 470 470 471 354 463 470 470 585 471 580 468 474 471 352 467 471 355 589 582 472 466 357 587 473 467 471 470 471 471 473 470 471 472 353 472 472 357 472 471 467 357 357 586 471 358 355 357 471 355 470 357 355 356 359 466 357 357 470 357 358 357 355 471 354 355 355 356 471 357 358 356 357 469 357 358 357 355 469 355 359 355 356 470 356 358 357 357 356 353 354 357 357 357 359 358 357 223 356 358 358 358 223 358 357 352 354 223 357

Tree=0
num_leaves=3
num_cat=0
split_feature=0 0
split_gain=36.9375 1.88744
threshold=0.24917472785190301 0.078788914305825533
decision_type=2 2
left_child=1 -1
right_child=-2 -3
leaf_value=-1.9162015567471726 -1.5410192385933357 -1.8319769547126379
leaf_weight=10.516099542379381 3.7315191924571982 3.5619046837091437
leaf_count=62 22 21
internal_value=-1.82075 -1.89489
internal_weight=0 14.078
internal_count=105 83
is_linear=0
shrinkage=1


Tree=1
num_leaves=4
num_cat=0
split_feature=3 0 1
split_gain=18.159 8.38135 0.168033
threshold=0.1513001589660381 0.19019161498477447 -0.0633080022324949
decision_type=2 2 2
left_child=1 2 -1
right_child=-2 -3 -4
leaf_value=-1.6844379124341002 -1.4386045791007669 -1.5344379124341003 -1.7094379124341001
leaf_weight=4.0000000596046474 4.8000000715255728 4.0000000596046439 8.2000001221895236
leaf_count=20 24 20 41
internal_value=-1.60944 -1.66006 -1.70124
internal_weight=0 16.2 12.2
internal_count=105 81 61
is_linear=0
shrinkage=1


Tree=2
num_leaves=4
num_cat=0
split_feature=15 5 7
split_gain=25.0147 5.95 0.177059
threshold=-0.06028464613762527 -0.081424967690506334 0.023475998246571223
decision_type=2 2 2
left_child=-1 -2 -3
right_child=1 2 -4
leaf_value=-1.4358751315073863 -1.6088163113129472 -1.7570516082891423 -1.7311104313183079
leaf_weight=4.0476190298795727 4.0476190298795744 8.2879818230867333 3.8548752665519723
leaf_count=21 21 43 20
internal_value=-1.65823 -1.71382 -1.74882
internal_weight=0 16.1905 12.1429
internal_count=105 84 63
is_linear=0
shrinkage=1


Tree=3
num_leaves=3
num_cat=0
split_feature=0 0
split_gain=48.6762 7.51461
threshold=-0.37915273716409809 -0.097131660984410353
decision_type=2 2
left_child=-1 -2
right_child=1 -3
leaf_value=-1.1136826950355923 -1.3590575781459935 -1.5021929266270608
leaf_weight=4.8904761672019985 4.8904761672020021 14.671428501605982
leaf_count=21 21 63
internal_value=-1.39586 -1.46641
internal_weight=0 19.5619
internal_count=105 84
is_linear=0
shrinkage=1


Tree=4
num_leaves=3
num_cat=0
split_feature=5 27
split_gain=34.7143 2.85714
threshold=0.10021978872433515 -0.01007872286932208
decision_type=2 2
left_child=1 -1
right_child=-2 -3
leaf_value=-1.6261045791007669 -1.3522950552912432 -1.7094379124341004
leaf_weight=7.2000001072883668 4.2000000625848761 9.6000001430511457
leaf_count=36 21 48
internal_value=-1.60944 -1.67372
internal_weight=0 16.8
internal_count=105 84
is_linear=0
shrinkage=1


Tree=5
num_leaves=4
num_cat=0
split_feature=0 72 0
split_gain=26.7604 1.96257 0.000474326
threshold=0.24917472785190301 -0.046848133926872239 -0.097131660984410353
decision_type=2 2 2
left_child=1 -1 -3
right_child=-2 2 -4
leaf_value=-0.0059871812078501115 0.21068539678504541 -0.093436604996011641 -0.09482590328306402
leaf_weight=3.389647752046586 4.4951918125152579 4.6073883324861526 5.26641745865345
leaf_count=21 22 30 32
internal_value=0 -0.0716394 -0.0941776
internal_weight=0 13.2635 9.87381
internal_count=105 83 62
is_linear=0
shrinkage=0.1


Tree=6
num_leaves=5
num_cat=0
split_feature=8 4 93 0
split_gain=15.8451 10.3064 0.196855 0.00078441
threshold=-0.12524296381038932 0.086734817393807742 0.032366755875974922 0.021995909967600581
decision_type=2 2 2 2
left_child=-1 2 3 -2
right_child=1 -3 -4 -5
leaf_value=0.1680073767335527 -0.098719379185243233 0.090437542144307492 -0.072304029975555822 -0.10064611889660434
leaf_weight=4.4387066066265133 4.2000228762626666 4.1930866539478293 3.8074920028448096 4.2522463649511337
leaf_count=21 22 21 20 21
internal_value=0 -0.0448968 -0.0911839 -0.0996887
internal_weight=0 16.4528 12.2598 8.45227
internal_count=105 84 63 43
is_linear=0
shrinkage=0.1


Tree=7
num_leaves=5
num_cat=0
split_feature=15 5 11 14
split_gain=18.5198 5.15368 0.196159 0.000178615
threshold=-0.06028464613762527 -0.081424967690506334 -0.032662534636461266 0.020999921420792347
decision_type=2 2 2 2
left_child=-1 -2 -3 -4
right_child=1 2 3 -5
leaf_value=0.17482047017729063 0.041570694698853869 -0.068451559702725026 -0.097360958888849131 -0.096396999392335148
leaf_weight=4.6602840423584011 4.2295753508806238 3.5519039183855057 3.657676681876179 4.0512561351060867
leaf_count=21 21 20 20 23
internal_value=0 -0.0525455 -0.0878955 -0.0968544
internal_weight=0 15.4904 11.2608 7.70893
internal_count=105 84 63 43
is_linear=0
shrinkage=0.1


Tree=8
num_leaves=4
num_cat=0
split_feature=0 0 3
split_gain=37.3753 0.0014944 0.000500865
threshold=-0.11507784154194071 0.24917472785190301 -0.055251373070012912
decision_type=2 2 2
left_child=-1 2 -2
right_child=1 -3 -4
leaf_value=0.14895894128251549 -0.10463152490386288 -0.1018043060534763 -0.10318919251696219
leaf_weight=9.9373888969421404 5.3897038102149954 4.6251494884490958 4.3514707386493674
leaf_count=39 24 22 20
internal_value=0 -0.103284 -0.103987
internal_weight=0 14.3663 9.74117
internal_count=105 66 44
is_linear=0
shrinkage=0.1


Tree=9
num_leaves=4
num_cat=0
split_feature=5 10 27
split_gain=25.7194 1.95091 0.000312095
threshold=0.050434169951909323 0.026166694423202647 -0.01007872286932208
decision_type=2 2 2
left_child=1 2 -1
right_child=-2 -3 -4
leaf_value=-0.099090273532536938 0.17242455536714918 -0.022698144873502669 -0.097941838566261083
leaf_weight=4.4584919810295105 6.1160449236631385 5.2874976247549048 5.0427330136299151
leaf_count=23 27 28 27
internal_value=0 -0.0713858 -0.0984807
internal_weight=0 14.7887 9.50122
internal_count=105 78 50
is_linear=0
shrinkage=0.1


Tree=10
num_leaves=4
num_cat=0
split_feature=0 73 0
split_gain=20.4426 0.249047 0.000712513
threshold=0.1670416602423839 0.026072408664692435 -0.097131660984410353
decision_type=2 2 2
left_child=1 2 -1
right_child=-2 -3 -4
leaf_value=-0.092171021381930895 0.13886179095587145 -0.059445988005103957 -0.094063798504589444
leaf_weight=3.8563541546463975 6.5932097584009162 3.0260241031646729 4.1067665964365014
leaf_count=27 31 21 26
internal_value=0 -0.083867 -0.0931472
internal_weight=0 10.9891 7.96312
internal_count=105 74 53
is_linear=0
shrinkage=0.1


Tree=11
num_leaves=5
num_cat=0
split_feature=7 37 57 46
split_gain=12.9118 6.38894 0.696639 0.00113632
threshold=0.097717276325641589 0.020894661174012227 0.021185579452765644 1.0000000180025095e-35
decision_type=2 2 2 2
left_child=1 2 3 -1
right_child=-2 -3 -4 -5
leaf_value=-0.10004270079871153 0.14296582842782621 0.061205281402699985 -0.046604041058896754 -0.097627547709339957
leaf_weight=3.9550152570009249 4.8698774874210349 4.2815928608179084 3.79399274289608 3.8391244411468506
leaf_count=20 23 21 20 21
internal_value=0 -0.0431787 -0.0817466 -0.0988531
internal_weight=0 15.8697 11.5881 7.79414
internal_count=105 82 61 41
is_linear=0
shrinkage=0.1


Tree=12
num_leaves=4
num_cat=0
split_feature=9 14 119
split_gain=14.4342 5.72959 0.213915
threshold=0.064325492918097985 0.050863132285488118 0.017629245574513994
decision_type=2 2 2
left_child=1 2 -1
right_child=-2 -3 -4
leaf_value=-0.099128227974134633 0.14134944042931119 0.05162051187768564 -0.069005239465878651
leaf_weight=7.1739342957735079 5.3062496483325949 3.9578371047973624 3.5113444924354553
leaf_count=38 26 21 20
internal_value=0 -0.0511595 -0.0892294
internal_weight=0 14.6431 10.6853
internal_count=105 79 58
is_linear=0
shrinkage=0.1


Tree=13
num_leaves=4
num_cat=0
split_feature=0 2 0
split_gain=30.7882 0.685759 0.0050257
threshold=-0.23047364704428938 0.09418856016477796 0.078788914305825533
decision_type=2 2 2
left_child=-1 2 -2
right_child=1 -3 -4
leaf_value=0.14532946031774505 -0.10431151200355944 -0.053980868909916407 -0.099947312384848885
leaf_weight=9.0428382456302661 4.6241642683744413 4.1512285172939292 6.145472913980484
leaf_count=33 21 20 31
internal_value=0 -0.0885112 -0.101821
internal_weight=0 14.9209 10.7696
internal_count=105 72 52
is_linear=0
shrinkage=0.1


Tree=14
num_leaves=4
num_cat=0
split_feature=5 10 37
split_gain=20.4126 1.90981 0.000434468
threshold=0.050434169951909323 0.026166694423202647 -0.013915783786845956
decision_type=2 2 2
left_child=1 2 -1
right_child=-2 -3 -4
leaf_value=-0.09740386753756447 0.144038404319903 -0.020077538177078035 -0.096001506275190912
leaf_weight=4.2010440528392792 6.6685407906770697 5.1471019983291617 4.6595510393381137
leaf_count=23 27 28 27
internal_value=0 -0.068524 -0.0966664
internal_weight=0 14.0077 8.8606
internal_count=105 78 50
is_linear=0
shrinkage=0.1


Tree=15
num_leaves=5
num_cat=0
split_feature=0 41 0 0
split_gain=16.545 2.33584 0.00253743 0.000278324
threshold=0.24917472785190301 -0.038353348530363464 0.021995909967600581 -0.26920802459536247
decision_type=2 2 2 2
left_child=1 -1 3 -3
right_child=-2 2 -4 -5
leaf_value=0.011813845130776747 0.14233905211171657 -0.090158258831415414 -0.094351988987082164 -0.091581635789621516
leaf_weight=2.8377845585346231 5.5216113924980155 2.6180491223931313 3.4881831482052803 2.8904721289873123
leaf_count=19 22 21 22 21
internal_value=0 -0.0672902 -0.0922415 -0.0909051
internal_weight=0 11.8345 8.9967 5.50852
internal_count=105 83 64 42
is_linear=0
shrinkage=0.1


Tree=16
num_leaves=5
num_cat=0
split_feature=3 7 49 85
split_gain=12.286 6.63335 0.76858 0.00162127
threshold=0.20216086040078715 0.097717276325641589 0.033704067559469635 0.011698880941118935
decision_type=2 2 2 2
left_child=1 2 3 -1
right_child=-2 -3 -4 -5
leaf_value=-0.09822697985213906 0.14016133392114025 0.068905617114529749 -0.041437631431648879 -0.095360890828468881
leaf_weight=4.8171738237142581 4.8286495059728614 4.0068906843662253 3.5727319270372382 3.3436227142810822
leaf_count=26 21 18 20 20
internal_value=0 -0.0421828 -0.0801185 -0.0970527
internal_weight=0 15.7404 11.7335 8.1608
internal_count=105 84 66 46
is_linear=0
shrinkage=0.1


Tree=17
num_leaves=5
num_cat=0
split_feature=15 5 17 5
split_gain=17.6478 4.10731 0.219198 0.000960344
threshold=-0.06764774199701197 -0.081424967690506334 0.021202329036129012 0.036260015165237643
decision_type=2 2 2 2
left_child=-1 -2 3 -3
right_child=1 2 -4 -5
leaf_value=0.17318358836708114 0.027318058339505111 -0.096118538234507001 -0.063919112891478905 -0.093809787834843714
leaf_weight=4.5410878956317928 4.6181664913892755 4.2768573611974681 3.2306334376335144 3.1130603849887848
leaf_count=18 22 25 20 20
internal_value=0 -0.0514125 -0.0856472 -0.095146
internal_weight=0 15.2387 10.6206 7.38992
internal_count=105 87 65 45
is_linear=0
shrinkage=0.1


Tree=18
num_leaves=4
num_cat=0
split_feature=0 0 3
split_gain=26.1592 0.00296234 0.000782834
threshold=-0.11507784154194071 0.24917472785190301 -0.055251373070012912
decision_type=2 2 2
left_child=-1 2 -2
right_child=1 -3 -4
leaf_value=0.11272020121857129 -0.10067995108906685 -0.09651191112144282 -0.098767812620820725
leaf_weight=10.936176255345346 4.8536704629659644 3.8765805661678305 3.8310259580612174
leaf_count=39 24 22 20
internal_value=0 -0.0988105 -0.0998365
internal_weight=0 12.5613 8.6847
internal_count=105 66 44
is_linear=0
shrinkage=0.1


Tree=19
num_leaves=4
num_cat=0
split_feature=5 10 55
split_gain=16.5524 1.85576 0.000429015
threshold=0.050434169951909323 0.026166694423202647 0.027715829913507285
decision_type=2 2 2
left_child=1 2 -1
right_child=-2 -3 -4
leaf_value=-0.09435183897944649 0.12351055168178918 -0.017938621111688657 -0.095801375249634349
leaf_weight=4.4833614230155963 7.0890910029411307 5.0343860983848563 3.7493032664060593
leaf_count=28 27 28 22
internal_value=0 -0.0657653 -0.095012
internal_weight=0 13.2671 8.23266
internal_count=105 78 50
is_linear=0
shrinkage=0.1


Tree=20
num_leaves=4
num_cat=0
split_feature=0 68 0
split_gain=13.7543 0.306195 0.00137558
threshold=0.1670416602423839 0.045828815881309222 -0.23047364704428938
decision_type=2 2 2
left_child=1 2 -1
right_child=-2 -3 -4
leaf_value=-0.089283846166860484 0.10061443893414584 -0.049793286299181408 -0.092118685376181397
leaf_weight=2.8822585567832002 7.4954518079757682 2.4226838797330856 4.2147443965077409
leaf_count=25 31 19 30
internal_value=0 -0.0804889 -0.0909674
internal_weight=0 9.51969 7.097
internal_count=105 74 55
is_linear=0
shrinkage=0.1


Tree=21
num_leaves=5
num_cat=0
split_feature=8 4 101 0
split_gain=10.8471 12.5963 0.251767 0.00775071
threshold=-0.13386232070809628 0.11743384701690292 0.033856983677634032 -0.086236310599774754
decision_type=2 2 2 2
left_child=-1 2 3 -2
right_child=1 -3 -4 -5
leaf_value=0.14150621821359061 -0.094163799223610234 0.11595396864300284 -0.065267258289861518 -0.10024616516604767
leaf_weight=4.31294718384743 3.5703951865434638 4.0168215632438651 3.3012703508138648 5.0701686590909949
leaf_count=18 23 18 20 26
internal_value=0 -0.0372315 -0.0887579 -0.0977329
internal_weight=0 15.9587 11.9418 8.64056
internal_count=105 87 69 49
is_linear=0
shrinkage=0.1


Tree=22
num_leaves=5
num_cat=0
split_feature=15 6 99 5
split_gain=16.1293 5.5798 0.922263 0.0119206
threshold=-0.071480558884058812 -0.11501651286576937 0.022025093587253571 -0.023476670026725242
decision_type=2 2 2 2
left_child=-1 -2 3 -3
right_child=1 2 -4 -5
leaf_value=0.17849315357601198 0.062981499929007104 -0.10053531477104038 -0.033868564450239065 -0.093082359350841706
leaf_weight=4.0209694951772716 3.5770575404167184 4.127280890941619 3.2133373096585283 4.4706639423966363
leaf_count=15 18 22 20 30
internal_value=0 -0.0464391 -0.0795772 -0.09666
internal_weight=0 15.3883 11.8113 8.59794
internal_count=105 90 72 52
is_linear=0
shrinkage=0.1


Tree=23
num_leaves=4
num_cat=0
split_feature=0 0 76
split_gain=21.9565 0.00316769 0.00106565
threshold=-0.11507784154194071 0.24917472785190301 -0.0087650239163229518
decision_type=2 2 2
left_child=-1 2 -2
right_child=1 -3 -4
leaf_value=0.099015621896018216 -0.096759672369671756 -0.094353287668277719 -0.099052468751044301
leaf_weight=11.264073714613916 3.9128973782062522 3.5131042301654807 4.2062412649393073
leaf_count=39 22 22 22
internal_value=0 -0.096862 -0.0979475
internal_weight=0 11.6322 8.11914
internal_count=105 66 44
is_linear=0
shrinkage=0.1


Tree=24
num_leaves=4
num_cat=0
split_feature=8 19 5
split_gain=14.0618 2.80164 0.0315669
threshold=0.028413257072312688 -0.022339652939146481 0.019844709248008095
decision_type=2 2 2
left_child=1 -1 -3
right_child=-2 2 -4
leaf_value=-0.0050362464754288103 0.11371127498525978 -0.094303901791346387 -0.10715863834491164
leaf_weight=5.1799725741148004 7.0545350611209861 4.2137304767966279 3.4946199804544449
leaf_count=28 33 27 17
internal_value=0 -0.0619117 -0.100132
internal_weight=0 12.8883 7.70835
internal_count=105 72 44
is_linear=0
shrinkage=0.1


Tree=25
num_leaves=4
num_cat=0
split_feature=0 68 0
split_gain=11.2627 0.319979 0.00122265
threshold=0.1670416602423839 0.045828815881309222 -0.23047364704428938
decision_type=2 2 2
left_child=1 2 -1
right_child=-2 -3 -4
leaf_value=-0.088233380216785159 0.086123200491649454 -0.046359191561544583 -0.091028774121636846
leaf_weight=2.6101969107985505 7.8562560975551596 2.2765428721904755 3.906140811741353
leaf_count=25 31 19 30
internal_value=0 -0.0786337 -0.089909
internal_weight=0 8.79288 6.51634
internal_count=105 74 55
is_linear=0
shrinkage=0.1


Tree=26
num_leaves=4
num_cat=0
split_feature=14 8 115
split_gain=10.4789 12.1675 1.65838
threshold=-0.015474209594568382 -0.062669148501347194 0.017030816745356104
decision_type=2 2 2
left_child=1 -1 -2
right_child=2 -3 -4
leaf_value=0.1989161881797217 -0.09833522313459675 -0.026137408470991372 -0.013074378008384646
leaf_weight=4.3800150603055954 6.7777778878808004 5.3203912228345889 3.4387630075216293
leaf_count=17 38 31 19
internal_value=0 0.0754808 -0.0696375
internal_weight=0 9.70041 10.2165
internal_count=105 48 57
is_linear=0
shrinkage=0.1


Tree=27
num_leaves=5
num_cat=0
split_feature=15 9 19 5
split_gain=13.0634 4.86167 0.943004 0.00638322
threshold=-0.071480558884058812 0.064325492918097985 0.048702458299215302 -0.035387161657791946
decision_type=2 2 2 2
left_child=-1 2 3 -2
right_child=1 -3 -4 -5
leaf_value=0.15527430613971882 -0.097593449132682905 0.055066430048859805 -0.029264986620860897 -0.091948063897181589
leaf_weight=4.2332678288221386 4.3665340095758429 3.7102484554052344 2.9912079945206633 3.7000133171677581
leaf_count=15 25 19 19 27
internal_value=0 -0.0439857 -0.0772211 -0.095004
internal_weight=0 14.768 11.0578 8.06655
internal_count=105 90 71 52
is_linear=0
shrinkage=0.1


Tree=28
num_leaves=5
num_cat=0
split_feature=0 9 0 55
split_gain=18.3945 5.65761 0.0660628 0.000562885
threshold=-0.37915273716409809 -0.065568669051466785 -0.059726899781231933 0.0025576239786786071
decision_type=2 2 2 2
left_child=-1 -2 -3 -4
right_child=1 2 3 -5
leaf_value=0.14071505447486918 0.027143987210718635 -0.11080307709638296 -0.093681397935696825 -0.095551715780552424
leaf_weight=6.487222075462344 5.0999881997704533 4.1728937178850174 3.0936783626675552 3.3532595634460449
leaf_count=21 26 18 20 20
internal_value=0 -0.059426 -0.101 -0.0946542
internal_weight=0 15.7198 10.6198 6.44694
internal_count=105 84 58 40
is_linear=0
shrinkage=0.1


Tree=29
num_leaves=4
num_cat=0
split_feature=5 10 8
split_gain=12.7826 1.82122 0.00141517
threshold=0.050434169951909323 0.026166694423202647 -0.018379653044119999
decision_type=2 2 2
left_child=1 2 -1
right_child=-2 -3 -4
leaf_value=-0.092030732961619052 0.10424121919278073 -0.014403626207357481 -0.094794761308260339
leaf_weight=3.9046628177165994 7.391315981745719 4.8183917701244354 3.5242378413677224
leaf_count=28 27 28 22
internal_value=0 -0.0622857 -0.093342
internal_weight=0 12.2473 7.4289
internal_count=105 78 50
is_linear=0
shrinkage=0.1


Tree=30
num_leaves=4
num_cat=0
split_feature=0 84 0
split_gain=9.58912 0.341526 0.00102399
threshold=0.1670416602423839 0.051561923900983457 -0.23047364704428938
decision_type=2 2 2
left_child=1 2 -1
right_child=-2 -3 -4
leaf_value=-0.087453538685065058 0.076841317597103387 -0.042304105040974815 -0.090112938124385658
leaf_weight=2.4031010419130325 8.0603738278150541 2.1071476340293884 3.6423830911517161
leaf_count=25 31 19 30
internal_value=0 -0.0769723 -0.0890558
internal_weight=0 8.15263 6.04548
internal_count=105 74 55
is_linear=0
shrinkage=0.1


Tree=31
num_leaves=5
num_cat=0
split_feature=0 8 21 8
split_gain=9.09715 8.53429 1.4759 0.00576084
threshold=0.037480299016159686 -0.056257434799222621 0.027833246689062344 1.0000000180025095e-35
decision_type=2 2 2 2
left_child=2 -2 3 -1
right_child=1 -3 -4 -5
leaf_value=-0.097981119666428862 0.15225045430594031 -0.034375330464398828 -0.010949451473780934 -0.092017019077459627
leaf_weight=3.4793620333075541 5.4565154314041138 4.4475796073675138 3.0546701326966286 3.0299012437462807
leaf_count=20 22 24 17 22
internal_value=0 0.0684434 -0.0682942 -0.095205
internal_weight=0 9.9041 9.56393 6.50926
internal_count=105 46 59 42
is_linear=0
shrinkage=0.1


Tree=32
num_leaves=5
num_cat=0
split_feature=15 6 53 5
split_gain=10.3448 5.40164 1.02391 0.00969419
threshold=-0.071480558884058812 -0.12954670713466079 0.035748824087714771 -0.023476670026725242
decision_type=2 2 2 2
left_child=-1 -2 3 -3
right_child=1 2 -4 -5
leaf_value=0.13411854227848477 0.069627626637310952 -0.098096238251280415 -0.023185811393748049 -0.09106431060629272
leaf_weight=4.3880813568830517 3.3312314078211793 3.3779493123292914 2.7342059165239343 4.6719964295625642
leaf_count=15 16 20 18 36
internal_value=0 -0.0416755 -0.0760571 -0.0940151
internal_weight=0 14.1154 10.7842 8.04995
internal_count=105 90 74 56
is_linear=0
shrinkage=0.1


Tree=33
num_leaves=4
num_cat=0
split_feature=0 0 76
split_gain=16.4867 0.0028431 0.00173522
threshold=-0.11507784154194071 0.22255232343209008 -0.0087650239163229518
decision_type=2 2 2
left_child=-1 2 -2
right_child=1 -3 -4
leaf_value=0.081526824271993065 -0.093656635012842049 -0.091782476123449738 -0.096883987851743902
leaf_weight=11.34148992598057 3.2248822897672653 3.433854952454567 3.4462612271308881
leaf_count=39 21 25 20
internal_value=0 -0.0941204 -0.0953239
internal_weight=0 10.105 6.67114
internal_count=105 66 41
is_linear=0
shrinkage=0.1


Tree=34
num_leaves=4
num_cat=0
split_feature=8 19 5
split_gain=10.5966 2.69265 0.0308764
threshold=0.028413257072312688 -0.022339652939146481 0.019844709248008095
decision_type=2 2 2
left_child=1 -1 -3
right_child=-2 2 -4
leaf_value=-0.001817670046349854 0.095088222542414211 -0.092279784630466183 -0.10571654553364417
leaf_weight=4.9480835571885118 7.3154755830764762 3.6480407565832147 3.2193602621555328
leaf_count=28 33 27 17
internal_value=0 -0.0580572 -0.0985788
internal_weight=0 11.8155 6.8674
internal_count=105 72 44
is_linear=0
shrinkage=0.1


Tree=35
num_leaves=4
num_cat=0
split_feature=0 20 0
split_gain=8.3346 4.57094 0.000869588
threshold=0.10238502889270189 -0.016384497955700687 -0.23047364704428938
decision_type=2 2 2
left_child=2 -2 -1
right_child=1 -3 -4
leaf_value=-0.08668142792528985 0.13080226314569304 -0.0089581460163809089 -0.089021904714535888
leaf_weight=2.8940328806638709 4.6216804981231689 4.7402912601828557 3.5162270143628138
leaf_count=33 18 22 32
internal_value=0 0.0600367 -0.0879653
internal_weight=0 9.36197 6.41026
internal_count=105 40 65
is_linear=0
shrinkage=0.1


Tree=36
num_leaves=4
num_cat=0
split_feature=14 8 115
split_gain=8.07443 8.82708 1.66102
threshold=-0.015474209594568382 -0.1039795729198451 0.017030816745356104
decision_type=2 2 2
left_child=1 -1 -2
right_child=2 -3 -4
leaf_value=0.17751973369401572 -0.096008238681527081 -0.015459675929987897 -0.0073816076182456102
leaf_weight=4.0747084617614746 6.0468749999999982 5.6663972735404986 3.2519333362579346
leaf_count=14 38 34 19
internal_value=0 0.0652637 -0.0650142
internal_weight=0 9.74111 9.29881
internal_count=105 48 57
is_linear=0
shrinkage=0.1


Tree=37
num_leaves=5
num_cat=0
split_feature=15 6 99 5
split_gain=8.6346 4.60565 1.04028 0.00573697
threshold=-0.071480558884058812 -0.12954670713466079 0.028756784468185317 -0.035387161657791946
decision_type=2 2 2 2
left_child=-1 -2 3 -3
right_child=1 2 -4 -5
leaf_value=0.12103829739559582 0.060166489039721299 -0.095950106134871913 -0.019113457247885893 -0.090323997219961358
leaf_weight=4.4476726651191738 3.4482160732150087 3.0814946368336678 2.5903389975428581 4.4009913206100428
leaf_count=15 16 20 18 36
internal_value=0 -0.0395848 -0.0737326 -0.092641
internal_weight=0 13.521 10.0728 7.48249
internal_count=105 90 74 56
is_linear=0
shrinkage=0.1


Tree=38
num_leaves=4
num_cat=0
split_feature=0 0 76
split_gain=13.717 0.00250543 0.00147878
threshold=-0.11507784154194071 0.22255232343209008 -0.0087650239163229518
decision_type=2 2 2
left_child=-1 2 -2
right_child=1 -3 -4
leaf_value=0.071312604365787666 -0.092206212643841587 -0.090332527327612044 -0.095308673512869577
leaf_weight=11.377960503101351 2.9524291306734085 3.0943693146109581 3.2031860351562482
leaf_count=39 21 25 20
internal_value=0 -0.0926538 -0.0938206
internal_weight=0 9.24998 6.15562
internal_count=105 66 41
is_linear=0
shrinkage=0.1


Tree=39
num_leaves=4
num_cat=0
split_feature=5 10 8
split_gain=10.0925 1.81307 0.00400965
threshold=0.050434169951909323 0.026166694423202647 0.014441617367268856
decision_type=2 2 2
left_child=1 2 -1
right_child=-2 -3 -4
leaf_value=-0.090107636084946777 0.09091059154071704 -0.010585390338143616 -0.095059643778245592
leaf_weight=3.8403733894228953 7.4628811180591574 4.5870775803923607 2.8474405109882355
leaf_count=32 27 28 18
internal_value=0 -0.0590054 -0.092216
internal_weight=0 11.2749 6.68781
internal_count=105 78 50
is_linear=0
shrinkage=0.1


Tree=40
num_leaves=4
num_cat=0
split_feature=0 4 0
split_gain=7.18412 4.4616 0.00080439
threshold=0.10238502889270189 -0.013519933527819534 -0.23047364704428938
decision_type=2 2 2
left_child=2 -2 -1
right_child=1 -3 -4
leaf_value=-0.085916801816192045 0.12373953628885528 -0.013813823154464153 -0.088277144644716032
leaf_weight=2.6053073890507212 4.6423350721597672 4.7921348810195905 3.2386562749743479
leaf_count=33 19 21 32
internal_value=0 0.0538708 -0.0872249
internal_weight=0 9.43447 5.84396
internal_count=105 40 65
is_linear=0
shrinkage=0.1


Tree=41
num_leaves=5
num_cat=0
split_feature=4 8 74 0
split_gain=7.93099 7.19654 1.80938 0.00615261
threshold=0.1676616411931631 -0.13386232070809628 0.05463274818998836 -0.086236310599774754
decision_type=2 2 2 2
left_child=1 -1 3 -3
right_child=-2 2 -4 -5
leaf_value=0.089385109410353145 0.13753713048387645 -0.090754610692627441 -0.0013863976752745051 -0.09619372800922088
leaf_weight=3.7851571589708337 3.4915839135646811 3.9442922398447982 2.8543945476412782 4.3993607237935057
leaf_count=14 15 32 17 27
internal_value=0 -0.0298183 -0.0701114 -0.0936225
internal_weight=0 14.9832 11.198 8.34365
internal_count=105 90 76 59
is_linear=0
shrinkage=0.1


Tree=42
num_leaves=4
num_cat=0
split_feature=3 14 73
split_gain=7.51006 3.64856 0.258344
threshold=-0.1348205900965288 0.050863132285488118 0.01745426171464232
decision_type=2 2 2
left_child=-1 2 -2
right_child=1 -3 -4
leaf_value=0.094919977567430383 -0.098398307267349994 0.032244458436682992 -0.059672779708747993
leaf_weight=5.6306386366486576 5.1747291758656484 3.9823789000511169 2.5823354199528694
leaf_count=27 35 24 19
internal_value=0 -0.0455618 -0.0855065
internal_weight=0 11.7394 7.75706
internal_count=105 78 54
is_linear=0
shrinkage=0.1


Tree=43
num_leaves=4
num_cat=0
split_feature=0 0 76
split_gain=11.7187 0.00234919 0.00101808
threshold=-0.11507784154194071 0.22255232343209008 1.0000000180025095e-35
decision_type=2 2 2
left_child=-1 2 -2
right_child=1 -3 -4
leaf_value=0.064019707629127523 -0.091385613907896804 -0.089099375535002245 -0.094064237686052182
leaf_weight=11.314458653330805 3.0183248147368413 2.7813961878418922 2.6777346804738045
leaf_count=39 23 25 18
internal_value=0 -0.0914816 -0.0926448
internal_weight=0 8.47746 5.69606
internal_count=105 66 41
is_linear=0
shrinkage=0.1


Tree=44
num_leaves=5
num_cat=0
split_feature=5 90 11 5
split_gain=8.49724 1.84224 0.283487 0.00128509
threshold=0.050434169951909323 0.035013618723062072 0.04678999366795724 -0.043028574038673585
decision_type=2 2 2 2
left_child=1 2 3 -1
right_child=-2 -3 -4 -5
leaf_value=-0.093759296432114572 0.082347209234573768 0.016824341819068826 -0.051425024522315135 -0.090730608857052419
leaf_weight=3.0112148299813271 7.5344419777393332 2.5960843935608855 2.4199947714805603 2.6198325380682963
leaf_count=21 27 18 18 21
internal_value=0 -0.0564283 -0.0800489 -0.0923502
internal_weight=0 10.6471 8.05104 5.63105
internal_count=105 78 60 42
is_linear=0
shrinkage=0.1


Tree=45
num_leaves=5
num_cat=0
split_feature=0 41 0 0
split_gain=6.1777 2.74514 0.0105924 0.000501347
threshold=0.24917472785190301 -0.058330075896742897 0.12096035283150408 -0.16752843324053637
decision_type=2 2 2 2
left_child=1 -1 3 -3
right_child=-2 2 -4 -5
leaf_value=0.043879308971899594 0.07371891612662429 -0.08530176447859672 -0.095358990500856153 -0.087425973883405755
leaf_weight=2.0535222850739947 6.39818099141121 2.0768208019435397 1.896122485399246 2.3893564753234386
leaf_count=16 22 29 12 26
internal_value=0 -0.0566497 -0.0890968 -0.0864382
internal_weight=0 8.41582 6.3623 4.46618
internal_count=105 83 67 55
is_linear=0
shrinkage=0.1


Tree=46
num_leaves=5
num_cat=0
split_feature=0 3 55 11
split_gain=6.52679 6.82543 4.40333 0.00558861
threshold=-0.097131660984410353 0.073174513282405415 0.011966437210931675 0.034342541864218055
decision_type=2 2 2 2
left_child=3 2 -2 -1
right_child=1 -3 -4 -5
leaf_value=-0.089131186683293895 -0.096252178823539952 0.12444295606959579 0.060347814146495218 -0.095659640445746957
leaf_weight=2.6897537782788303 3.8701104372739774 5.4770001322031021 3.3496203720569611 2.5585047081112862
leaf_count=25 25 21 17 17
internal_value=0 0.0402631 -0.023597 -0.0923138
internal_weight=0 12.6967 7.21973 5.24826
internal_count=105 63 42 42
is_linear=0
shrinkage=0.1


Tree=47
num_leaves=4
num_cat=0
split_feature=4 3 44
split_gain=7.07023 5.03154 0.295219
threshold=1.0000000180025095e-35 -0.026373747910742901 0.020338086867666198
decision_type=2 2 2
left_child=2 -2 -1
right_child=1 -3 -4
leaf_value=-0.095183008649677756 0.10865580281509811 -0.034992970505971242 -0.05122337442217683
leaf_weight=4.3627039641141918 6.2139280959963807 4.0130994766950581 2.3509198725223541
leaf_count=32 29 25 19
internal_value=0 0.0522878 -0.0797896
internal_weight=0 10.227 6.71362
internal_count=105 54 51
is_linear=0
shrinkage=0.1


Tree=48
num_leaves=5
num_cat=0
split_feature=0 9 0 82
split_gain=10.1844 5.00952 0.136356 0.000710667
threshold=-0.37915273716409809 -0.065568669051466785 -0.11507784154194071 0.0078575219910021026
decision_type=2 2 2 2
left_child=-1 -2 -3 -4
right_child=1 2 3 -5
leaf_value=0.10315888456088235 0.031607687652795445 -0.11657261700909767 -0.088744351389015541 -0.091050740108011591
leaf_weight=6.161952972412112 4.5148576274514207 2.927239865064621 2.9892748594284022 2.4155606031417847
leaf_count=21 26 11 28 19
internal_value=0 -0.0532229 -0.0991897 -0.0897751
internal_weight=0 12.8469 8.33208 5.40484
internal_count=105 84 58 47
is_linear=0
shrinkage=0.1


Tree=49
num_leaves=5
num_cat=0
split_feature=10 8 105 5
split_gain=7.9993 4.78584 0.932322 0.0562614
threshold=0.10978419731134115 0.028413257072312688 0.015813133775587379 0.028521827814473263
decision_type=2 2 2 2
left_child=1 2 3 -1
right_child=-2 -3 -4 -5
leaf_value=-0.09008904620354663 0.12993224649950608 0.046410384415838501 -0.030812284860954348 -0.1093923762418576
leaf_weight=3.1464737504720706 3.8068201541900626 4.8433377966284743 2.9536398351192474 2.9029045477509499
leaf_count=27 16 24 23 15
internal_value=0 -0.033745 -0.0768661 -0.0993521
internal_weight=0 13.8464 9.00302 6.04938
internal_count=105 89 65 42
is_linear=0
shrinkage=0.1


Tree=50
num_leaves=5
num_cat=0
split_feature=0 4 59 0
split_gain=5.58048 3.38074 0.000632592 0.000175136
threshold=0.10238502889270189 -0.013519933527819534 0.031312661518067442 -0.25092668928279271
decision_type=2 2 2 2
left_child=2 -2 3 -1
right_child=1 -3 -4 -5
leaf_value=-0.08452717079777175 0.10534333161390573 -0.014646095737899044 -0.08782637703037513 -0.085960964373608728
leaf_weight=1.5009694471955288 4.6972483545541763 4.6953392401337606 1.4526273235678671 1.9701481163501759
leaf_count=24 19 21 16 25
internal_value=0 0.0453608 -0.0860742 -0.085341
internal_weight=0 9.39259 4.92374 3.47112
internal_count=105 40 65 49
is_linear=0
shrinkage=0.1


Tree=51
num_leaves=5
num_cat=0
split_feature=4 8 19 0
split_gain=5.99211 5.48857 2.01824 0.0077469
threshold=0.1676616411931631 -0.13386232070809628 -0.038326787539080517 -0.086236310599774754
decision_type=2 2 2 2
left_child=1 -1 -3 -4
right_child=-2 2 3 -5
leaf_value=0.075808378010740404 0.115930146583928 0.01264880658166908 -0.088416074893580568 -0.094994704004349936
leaf_weight=3.6714471876621255 3.6217095702886573 2.4049953669309616 2.8951096460223198 4.6894732788205147
leaf_count=14 15 16 29 31
internal_value=0 -0.0287462 -0.0671729 -0.0924836
internal_weight=0 13.661 9.98958 7.58458
internal_count=105 90 76 60
is_linear=0
shrinkage=0.1


Tree=52
num_leaves=5
num_cat=0
split_feature=15 5 17 41
split_gain=6.05723 3.858 0.269682 0.00432027
threshold=-0.071480558884058812 -0.081424967690506334 0.021202329036129012 -0.014947815279186949
decision_type=2 2 2 2
left_child=-1 -2 3 -3
right_child=1 2 -4 -5
leaf_value=0.10280571265975846 0.037673215428932524 -0.094337359707159715 -0.049567256597128941 -0.088662784810231543
leaf_weight=4.252039402723315 4.4817030355334291 2.4130743891000757 2.182596281170845 3.0217578560113871
leaf_count=15 23 18 20 29
internal_value=0 -0.0359452 -0.0792585 -0.0911823
internal_weight=0 12.0991 7.61743 5.43483
internal_count=105 90 67 47
is_linear=0
shrinkage=0.1


Tree=53
num_leaves=3
num_cat=0
split_feature=0 59
split_gain=9.09236 0.00193362
threshold=-0.11507784154194071 -1.0000000180025095e-35
decision_type=2 2
left_child=-1 -2
right_child=1 -3
leaf_value=0.054923144993786477 -0.08799376028711059 -0.091262479919762232
leaf_weight=10.795992687344553 3.3933654576540002 3.8778551220893842
leaf_count=39 34 32
internal_value=0 -0.089737
internal_weight=0 7.27122
internal_count=105 66
is_linear=0
shrinkage=0.1


Tree=54
num_leaves=4
num_cat=0
split_feature=3 5 25
split_gain=6.91917 6.03225 0.25339
threshold=0.030660055066611902 0.019844709248008095 1.0000000180025095e-35
decision_type=2 2 2
left_child=1 -1 -2
right_child=2 -3 -4
leaf_value=-0.046266389527730434 -0.097061784352421063 0.10797041514238873 -0.055960322969811328
leaf_weight=4.0534031093120593 3.9111854434013358 6.7724418789148331 2.4330001994967461
leaf_count=30 29 27 19
internal_value=0 0.0502212 -0.0812993
internal_weight=0 10.8258 6.34419
internal_count=105 57 48
is_linear=0
shrinkage=0.1


Tree=55
num_leaves=5
num_cat=0
split_feature=0 4 59 0
split_gain=4.80258 2.57589 0.0005791 0.000120064
threshold=0.10238502889270189 -0.013519933527819534 0.031312661518067442 -0.25092668928279271
decision_type=2 2 2 2
left_child=2 -2 3 -1
right_child=1 -3 -4 -5
leaf_value=-0.084038628838365645 0.092597011784746025 -0.01240098989582609 -0.087236366394069953 -0.085290449934787765
leaf_weight=1.3530541658401478 4.7253833264112473 4.6217668950557691 1.3349006883800028 1.7664313465356847
leaf_count=24 19 21 16 25
internal_value=0 0.04068 -0.0854934 -0.0847475
internal_weight=0 9.34715 4.45439 3.11949
internal_count=105 40 65 49
is_linear=0
shrinkage=0.1


Tree=56
num_leaves=4
num_cat=0
split_feature=14 8 117
split_gain=5.58175 4.38686 1.8527
threshold=-0.015474209594568382 -0.1039795729198451 -0.015192783838442483
decision_type=2 2 2
left_child=1 -1 -2
right_child=2 -3 -4
leaf_value=0.13293404812820003 0.0093039850073645871 -0.008371801146173849 -0.094021092424218022
leaf_weight=4.0368677973747253 2.5936582311987886 4.8205361552536505 5.2441608160734159
leaf_count=14 19 34 38
internal_value=0 0.05603 -0.0598292
internal_weight=0 8.8574 7.83782
internal_count=105 48 57
is_linear=0
shrinkage=0.1


Tree=57
num_leaves=4
num_cat=0
split_feature=4 3 44
split_gain=5.32683 3.9137 0.312853
threshold=1.0000000180025095e-35 -0.026373747910742901 0.020338086867666198
decision_type=2 2 2
left_child=2 -2 -1
right_child=1 -3 -4
leaf_value=-0.093012784271330029 0.094416376466627497 -0.034723762656544525 -0.044498977212105634
leaf_weight=3.7550781965255746 6.0995608419179908 3.8142155557870856 2.0576408095657825
leaf_count=32 29 25 19
internal_value=0 0.0447311 -0.0758394
internal_weight=0 9.91378 5.81272
internal_count=105 54 51
is_linear=0
shrinkage=0.1


Tree=58
num_leaves=3
num_cat=0
split_feature=0 59
split_gain=7.85434 0.00167225
threshold=-0.11507784154194071 1.0000000180025095e-35
decision_type=2 2
left_child=-1 -2
right_child=1 -3
leaf_value=0.049970670361986311 -0.087114556545473079 -0.090300142900250735
leaf_weight=10.587245658040048 3.0621920600533477 3.5678338222205639
leaf_count=39 34 32
internal_value=0 -0.0888288
internal_weight=0 6.63003
internal_count=105 66
is_linear=0
shrinkage=0.1


Tree=59
num_leaves=4
num_cat=0
split_feature=8 31 95
split_gain=6.094 2.66215 0.272034
threshold=0.028413257072312688 0.042542358819547467 0.012934569217757106
decision_type=2 2 2
left_child=1 2 -1
right_child=-2 -3 -4
leaf_value=-0.09825399132397325 0.073140030442707213 0.031957271636310555 -0.056046536651261407
leaf_weight=4.452554080635311 6.950494520366191 2.8122152164578438 2.3240734338760376
leaf_count=33 33 18 21
internal_value=0 -0.0498357 -0.0837788
internal_weight=0 9.58884 6.77663
internal_count=105 72 54
is_linear=0
shrinkage=0.1


Tree=60
num_leaves=6
num_cat=0
split_feature=0 46 0 82 0
split_gain=4.237 2.54962 0.0128978 0.000449712 3.57565e-05
threshold=0.24917472785190301 -0.076575180768094123 0.12096035283150408 0.02321810779620942 -0.23047364704428938
decision_type=2 2 2 2 2
left_child=1 -1 3 4 -3
right_child=-2 2 -4 -5 -6
leaf_value=0.047843733986548065 0.060461348587644494 -0.08387862869119117 -0.095819765110268296 -0.08664024358741472 -0.084654831546913306
leaf_weight=1.8613712489604948 6.2023722529411316 1.1290304660797117 1.6236993446946142 1.2320777140557764 1.2511447370052344
leaf_count=16 22 21 10 16 20
internal_value=0 -0.0526807 -0.088417 -0.0850894 -0.0842866
internal_weight=0 7.09732 5.23595 3.61225 2.38018
internal_count=105 83 67 57 41
is_linear=0
shrinkage=0.1


Tree=61
num_leaves=5
num_cat=0
split_feature=0 4 3 11
split_gain=4.96479 5.17796 5.04077 0.00411971
threshold=-0.097131660984410353 0.12508829666676299 0.118518181156946 0.034342541864218055
decision_type=2 2 2 2
left_child=3 2 -2 -1
right_child=1 -3 -4 -5
leaf_value=-0.087061673234504935 -0.076125985768115786 0.13065922103567337 0.086347304516969967 -0.093243366295075902
leaf_weight=2.1182570159435299 4.7536504343152028 3.832495354115963 3.1916589289903641 2.1954490169882774
leaf_count=25 35 15 13 17
internal_value=0 0.0351904 -0.0108599 -0.0902078
internal_weight=0 11.7778 7.94531 4.31371
internal_count=105 63 48 42
is_linear=0
shrinkage=0.1


Tree=62
num_leaves=5
num_cat=0
split_feature=15 9 75 90
split_gain=4.81181 4.08721 0.254212 0.00531793
threshold=-0.095558520273718625 0.037553879838103994 -0.071015378261500964 0.0024130765836140574
decision_type=2 2 2 2
left_child=-1 2 -2 -4
right_child=1 -3 3 -5
leaf_value=0.10709677768796176 -0.047073806065280444 0.039272344094535443 -0.087770975631423109 -0.094246530277342089
leaf_weight=3.3013789355754861 1.7915824130177487 5.0148520767688751 2.6383436657488337 2.4420480914413929
leaf_count=12 14 31 30 18
internal_value=0 -0.02937 -0.0794621 -0.0908837
internal_weight=0 11.8868 6.87197 5.08039
internal_count=105 93 62 48
is_linear=0
shrinkage=0.1


Tree=63
num_leaves=4
num_cat=0
split_feature=2 0 9
split_gain=7.34063 3.34288 1.67309
threshold=0.061518186009738705 -0.26920802459536247 -0.019679326215477043
decision_type=2 2 2
left_child=2 -2 -1
right_child=1 -3 -4
leaf_value=-0.012282411368872278 0.11451537495845171 -0.012694651293391063 -0.10775220198353647
leaf_weight=2.8771292306482801 4.8776861131191254 3.5833281911909562 5.0710009373724478
leaf_count=25 19 28 33
internal_value=0 0.0606406 -0.0731933
internal_weight=0 8.46101 7.94813
internal_count=105 47 58
is_linear=0
shrinkage=0.1


Tree=64
num_leaves=4
num_cat=0
split_feature=5 27 8
split_gain=6.00798 1.76963 0.00285203
threshold=0.050434169951909323 -0.01007872286932208 1.0000000180025095e-35
decision_type=2 2 2
left_child=1 -1 -3
right_child=-2 2 -4
leaf_value=-0.001168794448616863 0.071331444439657901 -0.088315583830035405 -0.093071804458834437
leaf_weight=3.927590176463128 7.0806457102298728 2.8692338168621072 2.2489484250545502
leaf_count=31 27 30 17
internal_value=0 -0.0516597 -0.0904055
internal_weight=0 9.04577 5.11818
internal_count=105 78 47
is_linear=0
shrinkage=0.1


Tree=65
num_leaves=5
num_cat=0
split_feature=0 31 59 0
split_gain=3.85192 2.55595 0.000540834 7.9029e-05
threshold=0.10238502889270189 -0.025205131751197863 0.039105616277314917 -0.25092668928279271
decision_type=2 2 2 2
left_child=2 -2 3 -1
right_child=1 -3 -4 -5
leaf_value=-0.083262958735516424 0.09131014514734942 -0.014991834374285615 -0.086517448477796341 -0.084367748325158184
leaf_weight=1.1578841879963868 4.351339153945446 4.7103952169418317 1.1052697487175462 1.4688573628664037
leaf_count=25 18 22 15 25
internal_value=0 0.0360531 -0.0846616 -0.0838808
internal_weight=0 9.06173 3.73201 2.62674
internal_count=105 40 65 50
is_linear=0
shrinkage=0.1


Tree=66
num_leaves=4
num_cat=0
split_feature=14 3 66
split_gain=4.6335 4.7676 0.00744287
threshold=-0.06455477661053434 0.073174513282405415 0.014097761286456767
decision_type=2 2 2
left_child=-1 2 -2
right_child=1 -3 -4
leaf_value=0.100282928910084 -0.095150120364400778 0.035415184928939442 -0.087874212360665949
leaf_weight=3.6455805227160463 3.5624277517199499 5.8110379800200462 2.3225464597344398
leaf_count=18 28 34 25
internal_value=0 -0.0288353 -0.0922786
internal_weight=0 11.696 5.88497
internal_count=105 87 53
is_linear=0
shrinkage=0.1


Tree=67
num_leaves=4
num_cat=0
split_feature=4 7 17
split_gain=4.23414 3.05784 0.00226792
threshold=-0.05841258491150611 -0.016115501637774286 -0.023970188682318577
decision_type=2 2 2
left_child=2 -2 -1
right_child=1 -3 -4
leaf_value=-0.091221494432813896 -0.042532593970482716 0.071001548464343464 -0.08637891174086712
leaf_weight=2.1210064888000493 3.5741366297006598 7.0545703843235961 1.7776584215462214
leaf_count=19 26 37 23
internal_value=0 0.0328232 -0.0890134
internal_weight=0 10.6287 3.89866
internal_count=105 63 42
is_linear=0
shrinkage=0.1


Tree=68
num_leaves=4
num_cat=0
split_feature=0 62 40
split_gain=6.24486 0.00164397 0.000312708
threshold=-0.11507784154194071 0.032890803989588172 -0.031010728944162905
decision_type=2 2 2
left_child=-1 2 -2
right_child=1 -3 -4
leaf_value=0.043844855680650274 -0.087525480092190078 -0.090157686728499706 -0.085713884139004368
leaf_weight=9.8217690289020521 1.7430801242589944 1.858302369713783 2.1017008908092993
leaf_count=39 19 18 29
internal_value=0 -0.0877156 -0.0865352
internal_weight=0 5.70308 3.84478
internal_count=105 66 48
is_linear=0
shrinkage=0.1


Tree=69
num_leaves=4
num_cat=0
split_feature=7 14 106
split_gain=5.07134 4.39969 0.285243
threshold=0.0096163496687399538 -0.022752003836306434 0.018294566192050568
decision_type=2 2 2
left_child=1 -1 -2
right_child=2 -3 -4
leaf_value=0.11615404541997461 -0.09031490204887338 -0.017081837467722783 -0.041946415134591429
leaf_weight=4.6106308326125145 3.7602794207632551 5.3593847937881929 1.8042631857097147
leaf_count=19 37 33 16
internal_value=0 0.0445331 -0.0746318
internal_weight=0 9.97002 5.56454
internal_count=105 52 53
is_linear=0
shrinkage=0.1


Tree=70
num_leaves=5
num_cat=0
split_feature=0 74 0 0
split_gain=3.3443 0.501194 0.00296044 8.97954e-05
threshold=0.1670416602423839 0.057820967491904164 0.021995909967600581 -0.26920802459536247
decision_type=2 2 2 2
left_child=1 2 3 -1
right_child=-2 -3 -4 -5
leaf_value=-0.082989536024780708 0.040647846843363734 -0.0098629793778316609 -0.089757986970888104 -0.084269328768478091
leaf_weight=1.0171711370348933 7.7407542839646339 1.156713970005512 1.2580222226679323 1.1892276480793955
leaf_count=24 31 15 13 22
internal_value=0 -0.0668572 -0.0858867 -0.0836793
internal_weight=0 4.62113 3.46442 2.2064
internal_count=105 74 59 46
is_linear=0
shrinkage=0.1


Tree=71
num_leaves=4
num_cat=0
split_feature=14 8 28
split_gain=4.16219 3.04428 1.62033
threshold=-0.015474209594568382 -0.035159632992159719 0.025186842267316011
decision_type=2 2 2
left_child=1 -1 -2
right_child=2 -3 -4
leaf_value=0.10045254494279009 -0.091346969850079465 -0.025177795266750531 0.011105740419886512
leaf_weight=4.8685079216957092 4.4208769164979467 3.1944329477846605 2.3718867897987366
leaf_count=20 39 28 18
internal_value=0 0.0506794 -0.0555727
internal_weight=0 8.06294 6.79276
internal_count=105 48 57
is_linear=0
shrinkage=0.1


Tree=72
num_leaves=5
num_cat=0
split_feature=15 9 62 119
split_gain=3.84569 3.29988 0.246609 0.0037333
threshold=-0.095558520273718625 0.037553879838103994 0.052419590878085218 0.001163750258484372
decision_type=2 2 2 2
left_child=-1 2 3 -2
right_child=1 -3 -4 -5
leaf_value=0.097482796576973119 -0.092897350486431593 0.033579213597615815 -0.046059998576357668 -0.086939786396747945
leaf_weight=3.1293011605739602 2.4380217827856523 4.8068046197295189 1.7812617570161817 1.8500252924859522
leaf_count=12 21 31 18 23
internal_value=0 -0.0283155 -0.0773352 -0.090327
internal_weight=0 10.8761 6.06931 4.28805
internal_count=105 93 62 44
is_linear=0
shrinkage=0.1


Tree=73
num_leaves=4
num_cat=0
split_feature=2 0 9
split_gain=5.80375 2.5246 1.74112
threshold=0.061518186009738705 -0.26920802459536247 -0.045021632734088567
decision_type=2 2 2
left_child=2 -2 -1
right_child=1 -3 -4
leaf_value=0.0014460278007998226 0.10669270835749894 -0.0094228755547569824 -0.10344130487102199
leaf_weight=2.3578104376792908 4.319595143198967 3.3051890432834625 4.8138675875961781
leaf_count=21 19 28 37
internal_value=0 0.056359 -0.0689578
internal_weight=0 7.62478 7.17168
internal_count=105 47 58
is_linear=0
shrinkage=0.1


Tree=74
num_leaves=4
num_cat=0
split_feature=3 10 95
split_gain=4.7901 3.69892 0.262702
threshold=0.030660055066611902 0.026166694423202647 -1.0000000180025095e-35
decision_type=2 2 2
left_child=1 -1 -2
right_child=2 -3 -4
leaf_value=-0.015189149208749329 -0.094482511290020166 0.10737518027451616 -0.047888769346617684
leaf_weight=5.2116420716047269 3.1421893090009689 4.6676473207771778 1.9679128453135497
leaf_count=36 27 21 21
internal_value=0 0.0427186 -0.0765391
internal_weight=0 9.87929 5.1101
internal_count=105 57 48
is_linear=0
shrinkage=0.1


Tree=75
num_leaves=5
num_cat=0
split_feature=14 0 59 0
split_gain=3.03622 4.44444 0.000319794 5.29869e-05
threshold=-0.058251892056960485 0.10238502889270189 0.031312661518067442 -0.25092668928279271
decision_type=2 2 2 2
left_child=-1 2 3 -2
right_child=1 -3 -4 -5
leaf_value=-0.10020865331359913 -0.08258700476403863 0.068478498419840605 -0.085470121565547175 -0.083701494138078716
leaf_weight=2.3691336307674655 0.81624326854944151 6.9054139778017998 0.9343285709619521 0.89364222809672278
leaf_count=21 22 29 15 18
internal_value=0 0.0262633 -0.0839824 -0.0831695
internal_weight=0 9.54963 2.64421 1.70989
internal_count=105 84 55 40
is_linear=0
shrinkage=0.1


Tree=76
num_leaves=5
num_cat=0
split_feature=4 8 118 0
split_gain=3.89478 3.41824 2.54571 0.00601908
threshold=0.1676616411931631 -0.14740314491005316 -0.032707469068982579 -0.086236310599774754
decision_type=2 2 2 2
left_child=1 -1 -3 -4
right_child=-2 2 3 -5
leaf_value=0.071725733041357084 0.094410824129120469 0.038635768016234862 -0.086450877232679635 -0.093198828774195275
leaf_weight=2.6393122673034659 3.4832331836223611 2.0058380737900716 1.9226245060563067 4.230372156947853
leaf_count=12 15 17 26 35
internal_value=0 -0.0271968 -0.0591973 -0.0910903
internal_weight=0 10.7981 8.15883 6.153
internal_count=105 90 78 61
is_linear=0
shrinkage=0.1


Tree=77
num_leaves=4
num_cat=0
split_feature=3 14 93
split_gain=3.44867 2.56237 0.205224
threshold=-0.1348205900965288 0.050863132285488118 -0.018983182779389509
decision_type=2 2 2
left_child=-1 2 -2
right_child=1 -3 -4
leaf_value=0.066950128377234686 -0.053521555644737068 0.033270408443450382 -0.094544259751616469
leaf_weight=4.8706332519650468 1.8643960319459427 3.1414765492081642 3.5255263671278945
leaf_count=27 22 24 32
internal_value=0 -0.0385148 -0.0803543
internal_weight=0 8.5314 5.38992
internal_count=105 78 54
is_linear=0
shrinkage=0.1


Tree=78
num_leaves=4
num_cat=0
split_feature=0 9 82
split_gain=5.16433 0.00147271 0.00035998
threshold=-0.11507784154194071 -0.086870205273061038 -0.01165219450675725
decision_type=2 2 2
left_child=-1 -2 -3
right_child=1 2 -4
leaf_value=0.040365537864956176 -0.089490699354649095 -0.084429650775785098 -0.086504259586471885
leaf_weight=9.0173089206218702 1.4373966492712487 1.3765142075717443 2.1315158866345909
leaf_count=39 15 24 27
internal_value=0 -0.0867948 -0.0856902
internal_weight=0 4.94543 3.50803
internal_count=105 66 51
is_linear=0
shrinkage=0.1


Tree=79
num_leaves=5
num_cat=0
split_feature=5 8 7 8
split_gain=4.25912 4.50651 1.04738 0.00330549
threshold=0.019844709248008095 -0.035159632992159719 -0.052739451011511902 -0.02984425642502913
decision_type=2 2 2 2
left_child=2 -2 -1 -4
right_child=1 -3 3 -5
leaf_value=0.00099734249993494221 -0.032815357922480477 0.11522904302002315 -0.085130769980027166 -0.090854076983235221
leaf_weight=1.8655692636966694 3.7611987851560116 4.5357450284063798 1.6147056333720673 2.6906513236463097
leaf_count=14 22 20 25 24
internal_value=0 0.0481171 -0.0615884 -0.0887076
internal_weight=0 8.29694 6.17093 4.30536
internal_count=105 42 63 49
is_linear=0
shrinkage=0.1


Tree=80
num_leaves=4
num_cat=0
split_feature=14 31 0
split_gain=2.60667 3.79887 3.20577
threshold=-0.058251892056960485 0.017789007807549811 0.19019161498477447
decision_type=2 2 2
left_child=-1 2 -2
right_child=1 -3 -4
leaf_value=-0.098031073036167427 -0.019598099027110516 -0.060091173569194516 0.13263481004581781
leaf_weight=2.1750596351921567 2.2763913832604867 3.4095466453582048 3.5258477628231049
leaf_count=21 38 33 13
internal_value=0 0.023682 0.0729093
internal_weight=0 9.21179 5.80224
internal_count=105 84 51
is_linear=0
shrinkage=0.1


Tree=81
num_leaves=5
num_cat=0
split_feature=0 4 8 11
split_gain=3.64773 3.2842 3.62675 0.00208265
threshold=-0.097131660984410353 0.12508829666676299 -0.07624863453321451 0.04141439157361728
decision_type=2 2 2 2
left_child=3 2 -2 -1
right_child=1 -3 -4 -5
leaf_value=-0.086148454604700428 0.074852695763777941 0.10800721208994553 -0.074469980237799938 -0.09112961317550787
leaf_weight=1.7994530275464069 2.8496487885713568 3.6215072646737099 3.7895952872931948 1.5732232891023157
leaf_count=27 13 15 35 15
internal_value=0 0.0314053 -0.0103788 -0.088472
internal_weight=0 10.2608 6.63924 3.37268
internal_count=105 63 48 42
is_linear=0
shrinkage=0.1


Tree=82
num_leaves=5
num_cat=0
split_feature=15 5 47 15
split_gain=3.13364 2.7575 0.472524 0.00554112
threshold=-0.095558520273718625 -0.081424967690506334 0.043339161096434091 -0.020225902451726625
decision_type=2 2 2 2
left_child=-1 -2 3 -3
right_child=1 2 -4 -5
leaf_value=0.09111852551462564 0.035543851682956831 -0.093736689315286725 -0.025819178509192603 -0.08620343661167125
leaf_weight=2.9117293208837518 4.1475809887051573 1.5539080463349808 1.6509752608835695 2.6272940654307604
leaf_count=12 24 14 20 35
internal_value=0 -0.0267888 -0.071117 -0.0890031
internal_weight=0 9.97976 5.83218 4.1812
internal_count=105 93 69 49
is_linear=0
shrinkage=0.1


Tree=83
num_leaves=4
num_cat=0
split_feature=2 0 9
split_gain=4.63886 1.984 1.67278
threshold=0.061518186009738705 -0.26920802459536247 -0.051690248218406835
decision_type=2 2 2
left_child=2 -2 -1
right_child=1 -3 -4
leaf_value=0.0089270849456790802 0.10127251398630382 -0.006857220348242524 -0.10017836375429999
leaf_weight=2.0741599313914776 3.8150874376296997 3.0562289357185364 4.357145544141531
leaf_count=19 19 28 39
internal_value=0 0.0531785 -0.0649908
internal_weight=0 6.87132 6.43131
internal_count=105 47 58
is_linear=0
shrinkage=0.1


Tree=84
num_leaves=4
num_cat=0
split_feature=3 5 95
split_gain=3.85705 2.93323 0.244072
threshold=0.030660055066611902 0.019844709248008095 -1.0000000180025095e-35
decision_type=2 2 2
left_child=1 -1 -2
right_child=2 -3 -4
leaf_value=-0.037768721852227155 -0.092675902335486116 0.080165740480111269 -0.045030706591947967
leaf_weight=3.2481394186615926 2.7391300108283758 6.0131423622369766 1.7699149213731296
leaf_count=30 27 27 21
internal_value=0 0.0388035 -0.073974
internal_weight=0 9.26128 4.50904
internal_count=105 57 48
is_linear=0
shrinkage=0.1


Tree=85
num_leaves=5
num_cat=0
split_feature=0 78 59 4
split_gain=2.45612 2.50801 0.000222151 5.29207e-05
threshold=0.10238502889270189 -0.011633568138337923 0.031312661518067442 0.086734817393807742
decision_type=2 2 2 2
left_child=2 -2 3 -1
right_child=1 -3 -4 -5
leaf_value=-0.082251431161860442 -0.031516774505150266 0.079685146707430918 -0.084674697899638288 -0.083371380191837041
leaf_weight=1.0592030007392179 3.7716774381697178 4.3874759674072248 0.83917997963726509 0.70125282555818547
leaf_count=33 20 20 16 16
internal_value=0 0.0282806 -0.0833358 -0.0826975
internal_weight=0 8.15915 2.59964 1.76046
internal_count=105 40 65 49
is_linear=0
shrinkage=0.1


Tree=86
num_leaves=4
num_cat=0
split_feature=44 7 4
split_gain=3.23585 2.5081 2.88584
threshold=0.034320141603645007 0.030408728204550015 0.12508829666676299
decision_type=2 2 2
left_child=1 2 -1
right_child=-2 -3 -4
leaf_value=-0.089673418028393237 -0.088843092208853405 0.079698123266151097 0.064879665001349104
leaf_weight=2.7283075265586358 3.0178430788218984 4.9514985904097557 2.168297603726387
leaf_count=35 33 27 10
internal_value=0 0.029513 -0.0212348
internal_weight=0 9.8481 4.89661
internal_count=105 72 45
is_linear=0
shrinkage=0.1


Tree=87
num_leaves=4
num_cat=0
split_feature=8 7 74
split_gain=2.88321 3.92201 0.183277
threshold=-0.056257434799222621 -1.0000000180025095e-35 -1.0000000180025095e-35
decision_type=2 2 2
left_child=2 -2 -1
right_child=1 -3 -4
leaf_value=-0.091315517146782807 -0.047163928125524258 0.090588048154634171 -0.046766756017285187
leaf_weight=2.1953134890645747 3.5799880549311629 4.8901347108185282 1.5940782763063914
leaf_count=24 37 26 18
internal_value=0 0.0323657 -0.0725753
internal_weight=0 8.47012 3.78939
internal_count=105 63 42
is_linear=0
shrinkage=0.1


Tree=88
num_leaves=4
num_cat=0
split_feature=0 62 40
split_gain=4.2926 0.00134196 0.000214967
threshold=-0.11507784154194071 0.032890803989588172 -0.031010728944162905
decision_type=2 2 2
left_child=-1 2 -2
right_child=1 -3 -4
leaf_value=0.037844002690915701 -0.085702366531990939 -0.088537159491058268 -0.083945577561789719
leaf_weight=8.221047103404997 1.3307262286543837 1.4447038304060695 1.4614713247865456
leaf_count=39 19 18 29
internal_value=0 -0.086063 -0.0847828
internal_weight=0 4.2369 2.7922
internal_count=105 66 48
is_linear=0
shrinkage=0.1


Tree=89
num_leaves=4
num_cat=0
split_feature=3 58 95
split_gain=3.22141 2.70579 0.272062
threshold=0.030660055066611902 -0.011100630428522376 0.0050463911470124776
decision_type=2 2 2
left_child=1 -1 -2
right_child=2 -3 -4
leaf_value=-0.033339175459968617 -0.091012227738885398 0.079401631311938906 -0.037583954939358226
leaf_weight=3.5047279857099047 2.6350120101124057 5.4223474524915209 1.4931306429207323
leaf_count=27 29 30 19
internal_value=0 0.0351401 -0.0716875
internal_weight=0 8.92708 4.12814
internal_count=105 57 48
is_linear=0
shrinkage=0.1


Tree=90
num_leaves=5
num_cat=0
split_feature=0 31 59 74
split_gain=2.13751 1.59392 0.00017562 2.88252e-05
threshold=0.10238502889270189 -0.021468460325932005 0.039105616277314917 0.018613393041373345
decision_type=2 2 2 2
left_child=2 -2 3 -1
right_child=1 -3 -4 -5
leaf_value=-0.082024518240474353 0.069863878509380903 -0.019542940211737928 -0.084263300366686875 -0.082879048337387032
leaf_weight=0.9139355067163708 4.0393001884222031 3.9380018301308155 0.73048712499439705 0.69487610086798668
leaf_count=32 19 21 15 18
internal_value=0 0.0257281 -0.0829775 -0.0823936
internal_weight=0 7.9773 2.3393 1.60881
internal_count=105 40 65 50
is_linear=0
shrinkage=0.1


Tree=91
num_leaves=5
num_cat=0
split_feature=0 3 14 4
split_gain=2.93013 2.41307 3.38417 0.00184369
threshold=-0.097131660984410353 0.073174513282405415 -0.040601832271735257 0.056428781047893797
decision_type=2 2 2 2
left_child=3 2 -2 -1
right_child=1 -3 -4 -5
leaf_value=-0.085029023411503882 0.074034044260623669 0.083271477149502948 -0.091194663783783658 -0.090108954269633043
leaf_weight=1.4717303272336733 2.2070247977972022 4.2940805107355118 2.8279481977224341 1.3885019831359384
leaf_count=27 13 21 29 15
internal_value=0 0.0281996 -0.0187685 -0.0874951
internal_weight=0 9.32905 5.03497 2.86023
internal_count=105 63 42 42
is_linear=0
shrinkage=0.1


Tree=92
num_leaves=5
num_cat=0
split_feature=4 14 9 5
split_gain=2.72859 1.8016 2.98835 0.00138456
threshold=-0.05841258491150611 0.043225549125115677 0.064325492918097985 -0.035387161657791946
decision_type=2 2 2 2
left_child=3 2 -2 -1
right_child=1 -3 -4 -5
leaf_value=-0.088867672178390159 -0.078001280733210332 0.088370594782139045 0.065353029967310142 -0.084372590074984932
leaf_weight=1.278670331463218 2.879795501008628 3.1407700069248676 2.9373894035816193 1.4764578975737102
leaf_count=14 31 17 15 28
internal_value=0 0.0273379 -0.00561448 -0.0864588
internal_weight=0 8.95795 5.81718 2.75513
internal_count=105 63 46 42
is_linear=0
shrinkage=0.1


Tree=93
num_leaves=5
num_cat=0
split_feature=8 0 0 41
split_gain=4.02984 1.95312 0.0245996 0.000605877
threshold=-0.062669148501347194 -0.327963415480583 -0.11507784154194071 -0.021520669388334319
decision_type=2 2 2 2
left_child=-1 -2 -3 -4
right_child=1 2 3 -5
leaf_value=0.067235426389338673 0.017586205739166728 -0.10076181715522979 -0.08717167650299279 -0.084202627418402523
leaf_weight=4.7040600664913654 2.566091313958168 1.7806486636400221 1.363168902695179 1.3862471766769886
leaf_count=39 13 9 17 27
internal_value=0 -0.0521196 -0.091605 -0.0856747
internal_weight=0 7.09616 4.53006 2.74942
internal_count=105 66 53 44
is_linear=0
shrinkage=0.1


Tree=94
num_leaves=5
num_cat=0
split_feature=10 60 14 5
split_gain=3.04702 2.31776 1.77228 0.021522
threshold=0.10978419731134115 -0.052709504774279332 -0.031735327097307982 0.032630892590823239
decision_type=2 2 2 2
left_child=1 -1 -3 -4
right_child=-2 2 3 -5
leaf_value=0.063118610851690946 0.082235977350780531 0.011460564782950135 -0.087277012449955671 -0.10120225045613462
leaf_weight=2.1316318586468688 3.4296628758311281 2.5127591621130696 2.5852674599736929 1.9448053054511545
leaf_count=17 16 26 33 13
internal_value=0 -0.0282425 -0.0558945 -0.0932553
internal_weight=0 9.17446 7.04283 4.53007
internal_count=105 89 72 46
is_linear=0
shrinkage=0.1


Tree=95
num_leaves=4
num_cat=0
split_feature=34 45 95
split_gain=1.92555 2.94762 0.449889
threshold=0.026715991880696222 -0.035268719946622146 -0.014870377438024539
decision_type=2 2 2
left_child=1 -1 -3
right_child=-2 2 -4
leaf_value=0.067152865062229131 0.062908514761728582 -0.026702315747379187 -0.096983587937453708
leaf_weight=2.1128143295645714 3.393727283924818 1.2855543754994867 3.1244885083287954
leaf_count=18 29 21 37
internal_value=0 -0.0299669 -0.0764962
internal_weight=0 6.52286 4.41004
internal_count=105 76 58
is_linear=0
shrinkage=0.1


Tree=96
num_leaves=5
num_cat=0
split_feature=0 4 8 4
split_gain=2.60118 2.27178 3.0141 0.00133552
threshold=-0.097131660984410353 0.11743384701690292 -0.07624863453321451 0.056428781047893797
decision_type=2 2 2 2
left_child=3 2 -2 -1
right_child=1 -3 -4 -5
leaf_value=-0.084448752513729075 0.063914623970362072 0.086816891536147398 -0.088330616488050948 -0.088994426003552188
leaf_weight=1.3250769004225742 2.4949788004159918 3.7267490178346634 2.7159145921468726 1.2617968618869779
leaf_count=27 13 17 33 15
internal_value=0 0.0272009 -0.0154355 -0.086666
internal_weight=0 8.93764 5.21089 2.58687
internal_count=105 63 46 42
is_linear=0
shrinkage=0.1


Tree=97
num_leaves=4
num_cat=0
split_feature=4 7 9
split_gain=2.38048 2.58894 0.000938924
threshold=-0.05841258491150611 -0.052739451011511902 -0.045021632734088567
decision_type=2 2 2
left_child=2 -2 -1
right_child=1 -3 -4
leaf_value=-0.08793343083202658 -0.060478931820486505 0.06073039704763461 -0.084024857078256743
leaf_weight=1.0989422518759968 2.4889632165431967 6.0347937233746043 1.3944977931678302
leaf_count=14 24 39 28
internal_value=0 0.0253369 -0.0857475
internal_weight=0 8.52376 2.49344
internal_count=105 63 42
is_linear=0
shrinkage=0.1


Tree=98
num_leaves=4
num_cat=0
split_feature=0 9 82
split_gain=3.36715 0.000989363 0.000124076
threshold=-0.11507784154194071 -0.10152490254220621 0.037994881974410859
decision_type=2 2 2
left_child=-1 -2 -3
right_child=1 2 -4
leaf_value=0.032747591451101114 -0.087598882004225609 -0.083430759000725219 -0.084879041680292699
leaf_weight=7.4702742025256157 1.0820043273270132 1.555539418011904 0.95451380126178254
leaf_count=39 14 36 16
internal_value=0 -0.0850711 -0.0839815
internal_weight=0 3.59206 2.51005
internal_count=105 66 52
is_linear=0
shrinkage=0.1


Tree=99
num_leaves=5
num_cat=0
split_feature=5 8 7 8
split_gain=2.82436 2.7017 1.01011 0.00201508
threshold=0.019844709248008095 -0.035159632992159719 -0.052739451011511902 -0.02984425642502913
decision_type=2 2 2 2
left_child=2 -2 -1 -4
right_child=1 -3 3 -5
leaf_value=0.0090529465513188509 -0.024719134079074334 0.099479855399307107 -0.083869760175828589 -0.089008781274395127
leaf_weight=1.6147851496934889 3.2362488731741905 3.8175046294927597 1.1736572105437519 2.1807586252689362
leaf_count=14 22 20 25 24
internal_value=0 0.0424976 -0.055929 -0.0872107
internal_weight=0 7.05375 4.9692 3.35442
internal_count=105 42 63 49
is_linear=0
shrinkage=0.1


Tree=100
num_leaves=5
num_cat=0
split_feature=29 35 11 42
split_gain=1.88454 2.74996 2.26723 0.290922
threshold=0.037668231073959314 -0.031359777296923193 -0.041052718621327873 -0.024377699880415053
decision_type=2 2 2 2
left_child=1 -1 -3 -4
right_child=-2 2 3 -5
leaf_value=0.098862390545449999 -0.096340494543972449 0.073877850741209602 -0.033708173491961549 -0.094419709962306198
leaf_weight=2.9082439970225096 1.6330459322780368 1.6042649671435354 1.2893867045640943 2.0349800251424317
leaf_count=21 24 15 17 28
internal_value=0 0.0217473 -0.0237562 -0.0708722
internal_weight=0 7.83688 4.92863 3.32437
internal_count=105 81 60 45
is_linear=0
shrinkage=0.1


Tree=101
num_leaves=4
num_cat=0
split_feature=14 19 117
split_gain=2.41274 1.60518 1.11494
threshold=-0.015474209594568382 -0.038326787539080517 -0.015192783838442483
decision_type=2 2 2
left_child=1 -1 -2
right_child=2 -3 -4
leaf_value=0.093421320295790186 0.010720932852049067 -0.010143305703169346 -0.088391221054863092
leaf_weight=3.1197150740772486 1.8174654878675935 2.8764782585203648 3.0226326175034046
leaf_count=19 19 29 38
internal_value=0 0.0437396 -0.0511744
internal_weight=0 5.99619 4.8401
internal_count=105 48 57
is_linear=0
shrinkage=0.1


Tree=102
num_leaves=4
num_cat=0
split_feature=3 7 9
split_gain=2.15873 1.85784 1.56681
threshold=0.10407034336920988 -0.026156352152101752 0.064325492918097985
decision_type=2 2 2
left_child=1 -1 -3
right_child=-2 2 -4
leaf_value=-0.045742601170842299 -0.087713141845335768 0.0044690230219533219 0.11019775107009511
leaf_weight=2.6248497907072297 2.2050308622419843 2.8652500100433818 2.7438431531190872
leaf_count=30 33 29 13
internal_value=0 0.0236949 0.0561892
internal_weight=0 8.23394 5.60909
internal_count=105 72 42
is_linear=0
shrinkage=0.1


Tree=103
num_leaves=4
num_cat=0
split_feature=8 2 10
split_gain=3.18702 1.54972 0.114502
threshold=-0.062669148501347194 0.061518186009738705 0.039895617556032013
decision_type=2 2 2
left_child=-1 2 -2
right_child=1 -3 -4
leaf_value=0.061602763845461074 -0.068136155711532059 0.019449973739356557 -0.10159653008396873
leaf_weight=4.2170444391667843 1.8645702414214609 2.0744613390415907 2.2651236411184072
leaf_count=39 29 21 16
internal_value=0 -0.0510666 -0.0864891
internal_weight=0 6.20416 4.12969
internal_count=105 66 45
is_linear=0
shrinkage=0.1


Tree=104
num_leaves=4
num_cat=0
split_feature=73 7 53
split_gain=2.62279 2.43774 0.592847
threshold=0.01377016315329462 -0.0070046838550294034 -0.03116197070337743
decision_type=2 2 2
left_child=1 -1 -2
right_child=2 -3 -4
leaf_value=0.079003235696796625 -0.01834016043988319 -0.043849002972823042 -0.094810642330787134
leaf_weight=4.8894014414399862 1.8016574867069719 2.4119601435959339 2.3183740116655827
leaf_count=31 19 33 22
internal_value=0 0.0384198 -0.0613707
internal_weight=0 7.30136 4.12003
internal_count=105 64 41
is_linear=0
shrinkage=0.1


Tree=105
num_leaves=5
num_cat=0
split_feature=0 11 59 4
split_gain=1.74964 1.20961 0.000134596 2.31622e-05
threshold=0.10238502889270189 0.00651437596806836 0.039105616277314917 0.086734817393807742
decision_type=2 2 2 2
left_child=2 -2 3 -1
right_child=1 -3 -4 -5
leaf_value=-0.081650951829887991 0.062923317138907073 -0.020301546313439358 -0.083780523116955108 -0.08250986388269993
leaf_weight=0.78273472562432267 3.8206868134438992 3.2166774608194828 0.6241194363683461 0.52424812689423561
leaf_count=34 20 20 15 16
internal_value=0 0.0248824 -0.0825724 -0.0819955
internal_weight=0 7.03736 1.9311 1.30698
internal_count=105 40 65 50
is_linear=0
shrinkage=0.1


Tree=106
num_leaves=4
num_cat=0
split_feature=44 83 37
split_gain=2.20666 1.70337 2.3347
threshold=0.034320141603645007 -0.022626347384914394 0.015690257041493929
decision_type=2 2 2
left_child=1 -1 -3
right_child=-2 2 -4
leaf_value=0.084968714275750867 -0.086576432698170738 -0.080453028690386175 0.056408937671898821
leaf_weight=3.0238884035497895 2.2374293841421613 2.4263656437396994 2.5630730558186769
leaf_count=21 33 33 18
internal_value=0 0.0257456 -0.0101471
internal_weight=0 8.01333 4.98944
internal_count=105 72 51
is_linear=0
shrinkage=0.1


Tree=107
num_leaves=5
num_cat=0
split_feature=15 9 5 7
split_gain=1.94202 1.94146 2.15071 0.000851834
threshold=-0.095558520273718625 1.0000000180025095e-35 -0.081424967690506334 0.036303453900541786
decision_type=2 2 2 2
left_child=-1 3 -3 -2
right_child=1 2 -4 -5
leaf_value=0.080190775866022954 -0.085340712607588243 0.083712051192943809 -0.054544272586440783 -0.088727957091333298
leaf_weight=2.3025909438729286 1.7016608733683827 2.325472068041563 2.179858922958374 1.3170941751450298
leaf_count=12 27 13 35 18
internal_value=0 -0.0247622 0.0168181 -0.0868186
internal_weight=0 7.52409 4.50533 3.01876
internal_count=105 93 48 45
is_linear=0
shrinkage=0.1


Tree=108
num_leaves=4
num_cat=0
split_feature=0 9 78
split_gain=2.86356 0.000814467 9.05408e-05
threshold=-0.11507784154194071 -0.10152490254220621 1.0000000180025095e-35
decision_type=2 2 2
left_child=-1 -2 -3
right_child=1 2 -4
leaf_value=0.031472298783596066 -0.086911187731849027 -0.08263061432824903 -0.083952861329171888
leaf_weight=6.7582929879426956 0.96513250470161471 0.87547282129526172 1.2678211051970718
leaf_count=39 14 25 27
internal_value=0 -0.084499 -0.0834128
internal_weight=0 3.10843 2.14329
internal_count=105 66 52
is_linear=0
shrinkage=0.1


Tree=109
num_leaves=5
num_cat=0
split_feature=5 14 1 49
split_gain=2.32276 2.15921 0.972308 0.00162297
threshold=0.019844709248008095 -0.0049947929466320796 0.26802560042606494 0.035725773464598161
decision_type=2 2 2 2
left_child=2 -2 3 -1
right_child=1 -3 -4 -5
leaf_value=-0.08446013055502917 0.093770958421474634 -0.022066657253905924 0.014253000967134281 -0.089266075378082399
leaf_weight=1.8522679656744006 3.4834332093596458 2.9906507879495621 1.4195044562220571 1.1321719996631143
leaf_count=38 20 22 12 13
internal_value=0 0.0402607 -0.0538779 -0.0862833
internal_weight=0 6.47408 4.40394 2.98444
internal_count=105 42 63 51
is_linear=0
shrinkage=0.1


Tree=110
num_leaves=5
num_cat=0
split_feature=0 35 59 4
split_gain=1.52067 1.24522 0.000117719 1.73628e-05
threshold=0.10238502889270189 -0.031359777296923193 0.039105616277314917 0.086734817393807742
decision_type=2 2 2 2
left_child=2 -2 3 -1
right_child=1 -3 -4 -5
leaf_value=-0.081448936288785412 0.071204824650498807 -0.014988233634759571 -0.083519633875988153 -0.082236655972244929
leaf_weight=0.69142481870949246 2.9680945575237274 3.8504980094730854 0.57265790179371823 0.47004565317183733
leaf_count=34 14 26 15 16
internal_value=0 0.0225311 -0.0823463 -0.0817677
internal_weight=0 6.81859 1.73413 1.16147
internal_count=105 40 65 50
is_linear=0
shrinkage=0.1


Tree=111
num_leaves=3
num_cat=0
split_feature=44 0
split_gain=1.93996 1.58178
threshold=0.034320141603645007 0.037480299016159686
decision_type=2 2
left_child=1 -1
right_child=-2 -3
leaf_value=-0.04257641941121771 -0.085852533923286803 0.055280580699544661
leaf_weight=2.4144483078271151 2.0183942057192326 5.2295475043356419
leaf_count=39 33 33
internal_value=0 0.0243713
internal_weight=0 7.644
internal_count=105 72
is_linear=0
shrinkage=0.1


Tree=112
num_leaves=3
num_cat=0
split_feature=3 4
split_gain=1.76987 1.52398
threshold=0.10407034336920988 0.020497783914857012
decision_type=2 2
left_child=1 -1
right_child=-2 -3
leaf_value=-0.046197231765411871 -0.086747190670089458 0.052498996293618629
leaf_weight=2.2664920203387737 1.8843908105045555 5.0512909833341837
leaf_count=35 33 37
internal_value=0 0.0219304
internal_weight=0 7.31778
internal_count=105 72
is_linear=0
shrinkage=0.1


Tree=113
num_leaves=3
num_cat=0
split_feature=3 0
split_gain=2.58257 2.09697
threshold=-0.080206980283326679 -0.16752843324053637
decision_type=2 2
left_child=-1 -2
right_child=1 -3
leaf_value=-0.081712079670909391 0.068576711758333825 -0.057939009373372666
leaf_weight=2.9749973686411977 4.4488995596766472 1.8569100499153135
leaf_count=39 28 38
internal_value=0 0.0313209
internal_weight=0 6.30581
internal_count=105 66
is_linear=0
shrinkage=0.1


Tree=114
num_leaves=5
num_cat=0
split_feature=3 104 8 47
split_gain=2.16473 1.84541 1.87687 0.265264
threshold=0.030660055066611902 0.025814747508866063 0.028413257072312688 -0.041476146382689115
decision_type=2 2 2 2
left_child=1 2 -1 -2
right_child=3 -3 -4 -5
leaf_value=-0.071203316929717708 -0.025215416451943209 0.10188117096114438 0.055254298863073072 -0.087526494871557198
leaf_weight=2.2213362567126751 1.0120973885059359 2.5022660382091999 2.488482192158699 2.102379072457552
leaf_count=22 17 16 19 31
internal_value=0 0.0324825 -0.0043881 -0.0672775
internal_weight=0 7.21208 4.70982 3.11448
internal_count=105 57 41 48
is_linear=0
shrinkage=0.1


Tree=115
num_leaves=5
num_cat=0
split_feature=14 0 60 0
split_gain=1.4767 1.83368 0.496798 0.000896759
threshold=-0.040601832271735257 0.1670416602423839 -0.06744174899182491 0.021995909967600581
decision_type=2 2 2 2
left_child=-1 2 -2 -4
right_child=1 -3 3 -5
leaf_value=-0.076377614024798535 0.022264272491261866 0.06259933301475254 -0.08216893020879322 -0.087173291487333548
leaf_weight=1.8667108388617633 0.62509862985461939 4.2336162999272346 0.79336365032941125 0.65264541655778885
leaf_count=30 10 21 33 11
internal_value=0 0.0248791 -0.052226 -0.0844276
internal_weight=0 6.30472 2.07111 1.44601
internal_count=105 75 54 44
is_linear=0
shrinkage=0.1


Tree=116
num_leaves=5
num_cat=0
split_feature=14 117 27 28
split_gain=1.83094 1.23091 1.13569 0.000812222
threshold=-0.015474209594568382 -0.020035056047960034 0.032002694956977801 -0.0010851313594709376
decision_type=2 2 2 2
left_child=2 -2 -1 -3
right_child=1 3 -4 -5
leaf_value=-0.0060941733834266772 0.031520505339412759 -0.085279475983997946 0.087650515026114026 -0.088720644707335622
leaf_weight=2.5984592512249947 1.2830417752265928 1.3045113254338503 2.5709295514971018 1.4464221782982349
leaf_count=30 16 23 18 18
internal_value=0 -0.0493641 0.0405286 -0.0870888
internal_weight=0 4.03398 5.16939 2.75093
internal_count=105 57 48 41
is_linear=0
shrinkage=0.1


Tree=117
num_leaves=4
num_cat=0
split_feature=8 7 89
split_gain=1.65999 1.89629 0.176798
threshold=-0.056257434799222621 0.0096163496687399538 -0.0046749952345232866
decision_type=2 2 2
left_child=2 -2 -1
right_child=1 -3 -4
leaf_value=-0.035466885368688722 -0.035967649314464105 0.076551501165221039 -0.087812755901327311
leaf_weight=1.0992917176336052 2.6176563892513514 3.501054996624589 1.5621044561266897
leaf_count=18 39 24 24
internal_value=0 0.0284145 -0.0661913
internal_weight=0 6.11871 2.6614
internal_count=105 63 42
is_linear=0
shrinkage=0.1


Tree=118
num_leaves=5
num_cat=0
split_feature=8 0 0 41
split_gain=2.29282 1.25146 0.00897864 0.000151195
threshold=-0.062669148501347194 -0.327963415480583 -0.11507784154194071 -0.02533577115169915
decision_type=2 2 2 2
left_child=-1 -2 -3 -4
right_child=1 2 3 -5
leaf_value=0.056141304101301859 0.013168513018147896 -0.094324701546407749 -0.08449933011348626 -0.082607887477283537
leaf_weight=3.5622319485992193 1.9998895600438116 1.3902373909950256 0.79023178294301011 0.90848433226346992
leaf_count=39 13 9 15 29
internal_value=0 -0.0484629 -0.0883651 -0.0834878
internal_weight=0 5.08884 3.08895 1.69872
internal_count=105 66 53 44
is_linear=0
shrinkage=0.1


Tree=119
num_leaves=5
num_cat=0
split_feature=5 9 106 36
split_gain=1.96252 1.31756 0.366941 0.000723419
threshold=0.050434169951909323 -0.1329690195774749 -0.016422184803539828 -0.015992581679565535
decision_type=2 2 2 2
left_child=1 -1 -3 -4
right_child=-2 2 3 -5
leaf_value=0.053069238382524968 0.049720856342850402 -0.017983969493903695 -0.087658264987803713 -0.084494105901493644
leaf_weight=1.1751775406301019 4.6320002898573875 1.0895661851391198 1.4504200518131258 1.4398538861423729
leaf_count=10 27 21 19 28
internal_value=0 -0.0399668 -0.0674387 -0.086082
internal_weight=0 5.15502 3.97984 2.89027
internal_count=105 78 68 47
is_linear=0
shrinkage=0.1


Tree=120
num_leaves=4
num_cat=0
split_feature=73 9 66
split_gain=1.27799 1.33704 1.36296
threshold=0.020750189178339342 -0.029946918747438652 0.0014561485616858148
decision_type=2 2 2
left_child=1 -1 -3
right_child=-2 2 -4
leaf_value=-0.096016101051561498 0.059257146489725444 -0.058202974978071711 0.069843367959659772
leaf_weight=1.8151651956140993 2.5821743607521057 1.5473093530163171 1.796373752877116
leaf_count=24 35 23 23
internal_value=0 -0.0269204 0.0105892
internal_weight=0 5.15885 3.34368
internal_count=105 70 46
is_linear=0
shrinkage=0.1


Tree=121
num_leaves=4
num_cat=0
split_feature=29 0 21
split_gain=1.67084 1.56417 0.606973
threshold=-0.042196195475314814 0.037480299016159686 0.03106070056205839
decision_type=2 2 2
left_child=-1 2 -2
right_child=1 -3 -4
leaf_value=-0.088184962937199324 -0.084439091844156683 0.056178829404216195 0.019308478248503055
leaf_weight=1.6845706496387718 1.4336939025670292 4.6783460080623627 0.92952372878789891
leaf_count=24 34 35 12
internal_value=0 0.0226813 -0.0436321
internal_weight=0 7.04156 2.36322
internal_count=105 81 46
is_linear=0
shrinkage=0.1


Tree=122
num_leaves=4
num_cat=0
split_feature=47 3 32
split_gain=1.49245 1.46551 0.162551
threshold=-0.083224550621271806 -0.055251373070012912 0.010183625853690863
decision_type=2 2 2
left_child=-1 -2 -3
right_child=1 2 -4
leaf_value=0.076862698559700848 0.023762314928981194 -0.088273454912722038 -0.040529805369162591
leaf_weight=1.8935065045952795 3.1819299478083849 2.1128079323098068 1.0764265945181248
leaf_count=15 35 31 24
internal_value=0 -0.0242534 -0.0721591
internal_weight=0 6.37116 3.18923
internal_count=105 90 55
is_linear=0
shrinkage=0.1


Tree=123
num_leaves=4
num_cat=0
split_feature=0 9 78
split_gain=2.1258 0.000462385 4.83142e-05
threshold=-0.11507784154194071 -0.10152490254220621 1.0000000180025095e-35
decision_type=2 2 2
left_child=-1 -2 -3
right_child=1 2 -4
leaf_value=0.028204853331035503 -0.085613247291994626 -0.081985341506510878 -0.083088907621445135
leaf_weight=5.7440577149391174 0.76874236389994655 0.66544144134968497 0.98237394634634256
leaf_count=39 14 25 27
internal_value=0 -0.0835881 -0.0826433
internal_weight=0 2.41656 1.64782
internal_count=105 66 52
is_linear=0
shrinkage=0.1


Tree=124
num_leaves=5
num_cat=0
split_feature=73 5 27 53
split_gain=1.9116 1.54613 1.64218 0.481005
threshold=0.01377016315329462 0.050434169951909323 -0.01007872286932208 -0.033276047635842465
decision_type=2 2 2 2
left_child=1 2 -1 -2
right_child=3 -3 -4 -5
leaf_value=0.059893727088446591 -0.013972989261431035 0.088760933934564842 -0.084999828052870707 -0.091235565594446941
leaf_weight=1.5622034501284363 1.3950098343193533 2.8932909071445465 1.5666466737166045 1.9076450215652583
leaf_count=16 18 17 31 23
internal_value=0 0.036069 -0.0126559 -0.0586006
internal_weight=0 6.02214 3.12885 3.30265
internal_count=105 64 47 41
is_linear=0
shrinkage=0.1


Tree=125
num_leaves=4
num_cat=0
split_feature=14 31 0
split_gain=1.15866 1.51396 0.94278
threshold=-0.040601832271735257 0.017789007807549811 0.24917472785190301
decision_type=2 2 2
left_child=-1 2 -2
right_child=1 -3 -4
leaf_value=-0.073025971999809508 0.0035481581419112979 -0.047170693048028844 0.10508668379365052
leaf_weight=1.6201877789571879 1.6277732602320614 2.0089077595621347 2.0866140499711037
leaf_count=30 36 28 11
internal_value=0 0.0227647 0.060589
internal_weight=0 5.7233 3.71439
internal_count=105 75 47
is_linear=0
shrinkage=0.1


Tree=126
num_leaves=6
num_cat=0
split_feature=4 8 118 4 40
split_gain=1.48798 1.57263 1.37313 0.00209038 0.000517632
threshold=0.1676616411931631 -0.15644350147360445 -0.032707469068982579 0.078958841763004828 -0.0045776951999633711
decision_type=2 2 2 2 2
left_child=1 -1 -3 4 -4
right_child=-2 2 3 -5 -6
leaf_value=0.071123256378113633 0.066228649865498979 0.040703377144236802 -0.086049148794348884 -0.090151392126527008 -0.082995087605570672
leaf_weight=1.2703115716576574 2.4138802103698254 1.1302779661491511 1.3916632831096647 1.0846132840961216 0.92306127119809467
leaf_count=10 15 18 24 12 26
internal_value=0 -0.0272047 -0.0547804 -0.0865287 -0.0848313
internal_weight=0 5.79993 4.52962 3.39934 2.31472
internal_count=105 90 80 62 50
is_linear=0
shrinkage=0.1


Tree=127
num_leaves=5
num_cat=0
split_feature=15 5 49 40
split_gain=1.45723 1.26742 0.129706 0.000992725
threshold=-0.071480558884058812 -0.081424967690506334 -0.053928950782792022 -0.010523899168825764
decision_type=2 2 2 2
left_child=-1 -2 -3 -4
right_child=1 2 3 -5
leaf_value=0.067235520407058949 0.022568803215987285 -0.037586420055429719 -0.086901551690519885 -0.082639017985177546
leaf_weight=2.2466495111584663 2.6313237920403481 0.7816856820136312 1.2157472856342797 0.99236419331282344
leaf_count=15 23 17 19 31
internal_value=0 -0.0280466 -0.0725933 -0.0849859
internal_weight=0 5.62112 2.9898 2.20811
internal_count=105 90 67 50
is_linear=0
shrinkage=0.1


Tree=128
num_leaves=4
num_cat=0
split_feature=2 0 9
split_gain=1.97172 1.03287 0.961423
threshold=0.061518186009738705 -0.25092668928279271 -0.029946918747438652
decision_type=2 2 2
left_child=2 -2 -1
right_child=1 -3 -4
leaf_value=0.012725787632708568 0.090065926342967895 -0.013976385500707192 -0.092743579406402432
leaf_weight=1.3282408230006697 2.2194525152444844 1.6737218135967848 2.4744054367765784
leaf_count=23 20 27 35
internal_value=0 0.0453369 -0.0559038
internal_weight=0 3.89317 3.80265
internal_count=105 47 58
is_linear=0
shrinkage=0.1


Tree=129
num_leaves=5
num_cat=0
split_feature=73 7 6 53
split_gain=1.62925 1.44776 0.943242 0.494919
threshold=0.01377016315329462 -0.026156352152101752 0.11544552689161573 -0.035993857167230081
decision_type=2 2 2 2
left_child=1 -1 -3 -2
right_child=3 2 -4 -5
leaf_value=0.07818176153879193 -0.0089998493699621398 -0.08394863460672608 0.039455371589868712 -0.089842293044226237
leaf_weight=3.2855826355516911 1.3223008941859009 1.2552293669432404 1.2227576225996015 1.7722308756783602
leaf_count=24 17 31 9 24
internal_value=0 0.034656 -0.0230552 -0.0552981
internal_weight=0 5.76357 2.47799 3.09453
internal_count=105 64 40 41
is_linear=0
shrinkage=0.1


Tree=130
num_leaves=5
num_cat=0
split_feature=0 11 34 4
split_gain=1.10379 1.04923 3.63345e-05 7.60071e-06
threshold=0.10238502889270189 1.0000000180025095e-35 -0.051280574421425064 0.07417370992209206
decision_type=2 2 2 2
left_child=2 -2 -1 -4
right_child=1 -3 3 -5
leaf_value=-0.082467210922591669 0.062712766673095333 -0.023998858426404826 -0.0810961168049604 -0.08170195524709746
leaf_weight=0.44064297107979633 2.8879308328032494 2.7002224354073405 0.49673449993133545 0.35512924566864967
leaf_count=16 19 21 33 16
internal_value=0 0.0208133 -0.08173 -0.0813487
internal_weight=0 5.58815 1.29251 0.851864
internal_count=105 40 65 49
is_linear=0
shrinkage=0.1


Tree=131
num_leaves=4
num_cat=0
split_feature=29 0 3
split_gain=1.37179 1.24805 0.513309
threshold=-0.042196195475314814 0.037480299016159686 0.13838894396949827
decision_type=2 2 2
left_child=-1 2 -2
right_child=1 -3 -4
leaf_value=-0.086795643250481364 -0.084825240759290224 0.052297510836962526 0.017029341343404631
leaf_weight=1.4504521880298851 1.2036763736978175 4.2066130675375462 0.84013524278998364
leaf_count=24 34 35 12
internal_value=0 0.0211506 -0.0429566
internal_weight=0 6.25042 2.04381
internal_count=105 81 46
is_linear=0
shrinkage=0.1


Tree=132
num_leaves=4
num_cat=0
split_feature=2 17 7
split_gain=1.29918 1.37561 1.10628
threshold=0.15360715134319175 0.036912858847011391 0.0096163496687399538
decision_type=2 2 2
left_child=1 2 -1
right_child=-2 -3 -4
leaf_value=-0.085917355397012507 -0.085616997824396981 0.084631690310066343 0.025374846719014313
leaf_weight=1.4185053827241065 1.4516776083037255 2.1152302930131555 2.4117654524743557
leaf_count=28 29 20 28
internal_value=0 0.019904 -0.0158412
internal_weight=0 5.9455 3.83027
internal_count=105 76 56
is_linear=0
shrinkage=0.1


Tree=133
num_leaves=4
num_cat=0
split_feature=0 9 78
split_gain=1.79911 0.000321317 3.84838e-05
threshold=-0.11507784154194071 -0.10152490254220621 -0.0084971385847584808
decision_type=2 2 2
left_child=-1 -2 -3
right_child=1 2 -4
leaf_value=0.027556154067628815 -0.084948312132501883 -0.081568185299478901 -0.082672424439175454
leaf_weight=5.1034417115151882 0.67328409105539355 0.48563093226403009 0.90148545615375009
leaf_count=39 14 23 29
internal_value=0 -0.0831559 -0.0822858
internal_weight=0 2.0604 1.38712
internal_count=105 66 52
is_linear=0
shrinkage=0.1


Tree=134
num_leaves=5
num_cat=0
split_feature=3 104 8 105
split_gain=1.47431 1.20453 1.30682 0.210265
threshold=0.030660055066611902 0.025814747508866063 0.028413257072312688 -0.022124236986337052
decision_type=2 2 2 2
left_child=1 2 -1 -2
right_child=3 -3 -4 -5
leaf_value=-0.068156796263483185 -0.025573480455180871 0.090248268592882264 0.050464811059740267 -0.085929899229809245
leaf_weight=1.7276942487806084 0.934822412207723 2.1012189351022243 2.0082952454686165 1.5087350020185111
leaf_count=22 20 16 19 28
internal_value=0 0.0296761 -0.0043913 -0.0628396
internal_weight=0 5.83721 3.73599 2.44356
internal_count=105 57 41 48
is_linear=0
shrinkage=0.1


Tree=135
num_leaves=5
num_cat=0
split_feature=34 45 49 0
split_gain=1.07392 1.59814 0.163855 0.00616467
threshold=0.026715991880696222 -0.035268719946622146 -0.062613698722057506 0.1670416602423839
decision_type=2 2 2 2
left_child=1 -1 -3 -4
right_child=-2 2 3 -5
leaf_value=0.057124062952481451 0.054951767275596392 -0.037686932989460409 -0.084677247607247638 -0.096165302417874188
leaf_weight=1.4149202024564145 2.4006228223443031 0.85830928571522247 0.92652305914089084 0.94203438609838486
leaf_count=18 29 15 36 7
internal_value=0 -0.02911 -0.0738553 -0.090469
internal_weight=0 4.14179 2.72687 1.86856
internal_count=105 76 58 43
is_linear=0
shrinkage=0.1


Tree=136
num_leaves=5
num_cat=0
split_feature=14 4 19 0
split_gain=1.30689 0.800219 0.775017 0.000773101
threshold=-0.015474209594568382 0.1676616411931631 -0.038326787539080517 0.021995909967600581
decision_type=2 2 2 2
left_child=2 3 -1 -2
right_child=1 -3 -4 -5
leaf_value=0.079866508495732721 -0.08247866663647152 0.020139050420659572 -0.0068306415487639953 -0.086413966632086267
leaf_weight=2.1364540504291654 0.87131168041378337 1.1308843344449995 1.9929388612508772 1.1689322013407943
leaf_count=19 30 9 29 18
internal_value=0 -0.0473339 0.0380245 -0.0847333
internal_weight=0 3.17113 4.12939 2.04024
internal_count=105 57 48 48
is_linear=0
shrinkage=0.1


Tree=137
num_leaves=5
num_cat=0
split_feature=15 9 5 7
split_gain=1.16602 1.24471 1.198 0.000382755
threshold=-0.095558520273718625 1.0000000180025095e-35 -0.081424967690506334 0.036303453900541786
decision_type=2 2 2 2
left_child=-1 3 -3 -2
right_child=1 2 -4 -5
leaf_value=0.070695061135841106 -0.083506552171215775 0.071042023577878533 -0.052648535872972704 -0.086239323815251942
leaf_weight=1.7120378464460371 1.1233866726979616 1.7301706783473489 1.4304129984229805 0.94253931753337372
leaf_count=12 27 13 35 18
internal_value=0 -0.0243927 0.0150623 -0.0847533
internal_weight=0 5.22651 3.16058 2.06593
internal_count=105 93 48 45
is_linear=0
shrinkage=0.1


Tree=138
num_leaves=4
num_cat=0
split_feature=8 1 0
split_gain=1.62599 0.757967 0.503956
threshold=-0.056257434799222621 0.017213181134008073 -0.25092668928279271
decision_type=2 2 2
left_child=2 -2 -1
right_child=1 -3 -4
leaf_value=0.092560690078870814 -0.090132691455978464 0.00021303209285761389 0.010561146469274221
leaf_weight=1.4396050758659842 2.0354230543598537 1.7077209632843731 1.5634953882545231
leaf_count=14 36 27 28
internal_value=0 -0.0489146 0.0498695
internal_weight=0 3.74314 3.0031
internal_count=105 63 42
is_linear=0
shrinkage=0.1


Tree=139
num_leaves=5
num_cat=0
split_feature=5 8 68 40
split_gain=1.38862 0.939454 0.302186 0.000532761
threshold=0.050434169951909323 0.093523698612666351 -0.073020765526836534 -0.025315774123533339
decision_type=2 2 2 2
left_child=1 2 -1 -4
right_child=-2 -3 3 -5
leaf_value=-0.009218372144099516 0.0457592431609124 0.043435578532174723 -0.085778162040397649 -0.082713069839897957
leaf_weight=0.69794493913650546 3.8404727689921856 1.0427534058690069 1.2499781809747221 1.0379887688904998
leaf_count=11 27 10 23 34
internal_value=0 -0.03828 -0.0668171 -0.0843876
internal_weight=0 4.02867 2.98591 2.28797
internal_count=105 78 68 57
is_linear=0
shrinkage=0.1


Tree=140
num_leaves=5
num_cat=0
split_feature=14 0 90 86
split_gain=0.926934 1.14599 0.400752 0.000358152
threshold=-0.040601832271735257 0.1670416602423839 -0.026776566223738935 0.038803056879394962
decision_type=2 2 2 2
left_child=-1 2 -2 -4
right_child=1 -3 3 -5
leaf_value=-0.071512522199763492 0.023398275385089345 0.055938662576649478 -0.082147066479196382 -0.085856720438368464
leaf_weight=1.3487870777025817 0.5221450026147062 3.2683562114834785 0.54452952649444364 0.4985226783901453
leaf_count=30 14 21 27 13
internal_value=0 0.0222428 -0.048119 -0.0839201
internal_weight=0 4.83355 1.5652 1.04305
internal_count=105 75 54 40
is_linear=0
shrinkage=0.1


Tree=141
num_leaves=5
num_cat=0
split_feature=0 4 106 4
split_gain=1.18823 1.17412 1.26351 0.000337317
threshold=-0.097131660984410353 0.1676616411931631 -0.01913677858698053 0.069355422951216314
decision_type=2 2 2 2
left_child=3 2 -2 -1
right_child=1 -3 -4 -5
leaf_value=-0.082026207694450168 0.06300073775414837 0.087112951144667189 -0.056815364942070568 -0.085216999210875416
leaf_weight=0.69358747545629718 1.4328022161498664 1.8383387476205824 2.2817685250192885 0.63431948143988848
leaf_count=29 16 11 36 13
internal_value=0 0.0217492 -0.0105993 -0.0835504
internal_weight=0 5.55291 3.71457 1.32791
internal_count=105 63 52 42
is_linear=0
shrinkage=0.1


Tree=142
num_leaves=4
num_cat=0
split_feature=2 4 98
split_gain=1.06532 1.06791 0.299069
threshold=0.15360715134319175 0.020497783914857012 -0.014475944493534681
decision_type=2 2 2
left_child=1 2 -1
right_child=-2 -3 -4
leaf_value=0.00078389331175749983 -0.085000928550685667 0.049278226074420881 -0.084792446400764096
leaf_weight=0.72026980575174049 1.2295194100588558 3.5696850325912237 0.94309805147349857
leaf_count=15 29 36 25
internal_value=0 0.0184414 -0.0477363
internal_weight=0 5.23305 1.66337
internal_count=105 76 40
is_linear=0
shrinkage=0.1


Tree=143
num_leaves=4
num_cat=0
split_feature=0 9 78
split_gain=1.47953 0.000237951 2.24575e-05
threshold=-0.11507784154194071 -0.10152490254220621 -0.0084971385847584808
decision_type=2 2 2
left_child=-1 -2 -3
right_child=1 2 -4
leaf_value=0.025326017515534233 -0.084403176808285546 -0.081339930671887828 -0.082260032362836161
leaf_weight=4.5533930882811546 0.58929909579455841 0.40859938692301478 0.7562329792417587
leaf_count=39 14 23 29
internal_value=0 -0.0827657 -0.0819373
internal_weight=0 1.75413 1.16483
internal_count=105 66 52
is_linear=0
shrinkage=0.1


Tree=144
num_leaves=4
num_cat=0
split_feature=73 5 27
split_gain=1.25297 1.1072 1.11715
threshold=0.01745426171464232 0.050434169951909323 -0.01007872286932208
decision_type=2 2 2
left_child=1 2 -1
right_child=-2 -3 -4
leaf_value=0.047465582514774805 -0.05788088241812496 0.078014040823969691 -0.083887232253145538
leaf_weight=1.3528205268085005 2.3623770792037249 2.4827576242387295 1.2418862422928212
leaf_count=17 38 18 32
internal_value=0 0.0302757 -0.0154029
internal_weight=0 5.07746 2.59471
internal_count=105 67 49
is_linear=0
shrinkage=0.1


Tree=145
num_leaves=4
num_cat=0
split_feature=34 45 95
split_gain=0.834812 1.29529 0.150646
threshold=0.026715991880696222 -0.035268719946622146 -0.012578158279232294
decision_type=2 2 2
left_child=1 -1 -3
right_child=-2 2 -4
leaf_value=0.053300833269085406 0.050365947043086751 -0.036018910279268075 -0.089780434658401964
leaf_weight=1.2693101139739158 2.1633115997537971 0.77849862538278136 1.5770764546468852
leaf_count=18 29 24 34
internal_value=0 -0.0281322 -0.0720127
internal_weight=0 3.62489 2.35558
internal_count=105 76 58
is_linear=0
shrinkage=0.1


Tree=146
num_leaves=4
num_cat=0
split_feature=13 14 3
split_gain=1.10292 1.05031 1.13121
threshold=-0.034031563578685427 -0.040601832271735257 0.073174513282405415
decision_type=2 2 2
left_child=-1 -2 -3
right_child=1 2 -4
leaf_value=-0.074024311677027152 0.082607745955043693 -0.085089007272240877 0.038650536371666731
leaf_weight=1.4897975055500863 1.8945901934057472 1.2538730064406993 1.7985110115259884
leaf_count=30 20 31 24
internal_value=0 0.0241219 -0.0121798
internal_weight=0 4.94697 3.05238
internal_count=105 75 55
is_linear=0
shrinkage=0.1


Tree=147
num_leaves=4
num_cat=0
split_feature=3 15 9
split_gain=1.0056 0.850852 1.08922
threshold=0.10407034336920988 -0.071480558884058812 -1.0000000180025095e-35
decision_type=2 2 2
left_child=1 -1 -3
right_child=-2 2 -4
leaf_value=0.078594643261015118 -0.084407433379564425 -0.08398360744090079 0.034343819299148155
leaf_weight=1.6117996163666246 1.1625259043648837 1.2434061756357548 2.0780877545475964
leaf_count=13 33 31 28
internal_value=0 0.0189777 -0.00995223
internal_weight=0 4.93329 3.32149
internal_count=105 72 59
is_linear=0
shrinkage=0.1


Tree=148
num_leaves=5
num_cat=0
split_feature=14 2 99 5
split_gain=1.38164 1.103 0.433885 0.00377349
threshold=0.028949686508723944 0.15360715134319175 0.019921467296329591 0.065372280684175513
decision_type=2 2 2 2
left_child=1 3 -2 -1
right_child=2 -3 -4 -5
leaf_value=-0.083501079339528772 0.0071662857102448886 0.032284795658853775 0.089474014647150671 -0.0919905295972369
leaf_weight=0.85239923885092217 1.2298343870788815 1.1430731378495691 1.3364398004487155 1.3572893617674706
leaf_count=31 26 16 14 18
internal_value=0 -0.0474624 0.0500297 -0.0887157
internal_weight=0 3.35276 2.56627 2.20969
internal_count=105 65 40 49
is_linear=0
shrinkage=0.1


Tree=149
num_leaves=4
num_cat=0
split_feature=3 58 105
split_gain=1.10849 1.10392 0.224105
threshold=0.030660055066611902 -0.011100630428522376 -0.043022168977250315
decision_type=2 2 2
left_child=1 -1 -2
right_child=2 -3 -4
leaf_value=-0.036389489399637889 -0.015478830634438324 0.062197796262567051 -0.084795729902882089
leaf_weight=1.740263422951102 0.72997921379283104 3.2698846627026796 1.2918114336207507
leaf_count=27 17 30 31
internal_value=0 0.0279537 -0.0597685
internal_weight=0 5.01015 2.02179
internal_count=105 57 48
is_linear=0
shrinkage=0.1


Tree=150
num_leaves=6
num_cat=0
split_feature=0 53 0 82 29
split_gain=0.751097 0.451357 0.000511067 1.83378e-05 3.23283e-06
threshold=0.1670416602423839 -0.097307700321673588 0.12096035283150408 0.052368809036878759 -0.0084841864651339308
decision_type=2 2 2 2 2
left_child=1 -1 3 4 -3
right_child=-2 2 -4 -5 -6
leaf_value=0.038308970681667158 0.026549597306091018 -0.081279345972643399 -0.085636775079442132 -0.08195973154281036 -0.080799780418585723
leaf_weight=0.40565642155706871 3.7741225995123386 0.24397375248372521 0.40215324983000755 0.30732370913028717 0.33165524434298288
leaf_count=8 31 15 6 13 32
internal_value=0 -0.0536531 -0.0826819 -0.081336 -0.081003
internal_weight=0 1.69076 1.28511 0.882953 0.575629
internal_count=105 74 66 60 47
is_linear=0
shrinkage=0.1


Tree=151
num_leaves=4
num_cat=0
split_feature=44 7 37
split_gain=0.967454 0.808084 1.02228
threshold=0.034320141603645007 0.030408728204550015 0.017861825079182967
decision_type=2 2 2
left_child=1 2 -1
right_child=-2 -3 -4
leaf_value=-0.084750348886848736 -0.083123367795450667 0.061786305216163386 0.044146569995007927
leaf_weight=1.2246532654389741 1.1162987165153024 2.3739278456196189 1.2365977661684153
leaf_count=32 33 27 13
internal_value=0 0.0201602 -0.0199891
internal_weight=0 4.83518 2.46125
internal_count=105 72 45
is_linear=0
shrinkage=0.1


Tree=152
num_leaves=4
num_cat=0
split_feature=3 26 53
split_gain=0.888274 0.781716 0.789906
threshold=0.10407034336920988 -0.050881154222576754 0.035748824087714771
decision_type=2 2 2
left_child=1 -1 -3
right_child=-2 2 -4
leaf_value=0.0761525752961172 -0.083918642709229219 -0.056224718058007765 0.045967912226063452
leaf_weight=1.5468077994883058 1.0448551634326575 1.7107379464432599 1.3558317888528106
leaf_count=15 33 38 19
internal_value=0 0.0181933 -0.011042
internal_weight=0 4.61338 3.06657
internal_count=105 72 57
is_linear=0
shrinkage=0.1


Tree=153
num_leaves=4
num_cat=0
split_feature=2 0 9
split_gain=1.23451 0.799585 0.738298
threshold=0.061518186009738705 -0.23047364704428938 -0.051690248218406835
decision_type=2 2 2
left_child=2 -2 -1
right_child=1 -3 -4
leaf_value=0.020701919440912788 0.086749732233584648 -0.023394459086595237 -0.088735270423159554
leaf_weight=0.92784976121038232 1.6464912816882136 1.0990177658386526 1.8368299663998184
leaf_count=19 21 26 39
internal_value=0 0.0426594 -0.0520072
internal_weight=0 2.74551 2.76468
internal_count=105 47 58
is_linear=0
shrinkage=0.1


Tree=154
num_leaves=6
num_cat=0
split_feature=5 8 8 29 81
split_gain=1.02122 1.07071 0.677728 0.000355423 6.07547e-05
threshold=0.019844709248008095 -0.035159632992159719 0.067035000523515811 -0.050195348592943854 -0.01756457215769135
decision_type=2 2 2 2 2
left_child=2 -2 3 -1 -5
right_child=1 -3 -4 4 -6
leaf_value=-0.085644816736098639 -0.018618757027029857 0.08331815434189184 0.027706117354507662 -0.083374960305129656 -0.081906835037032319
leaf_weight=0.56808276008814584 2.0323664722964168 2.0900766216218472 0.80581641569733609 0.52113000210374594 0.61395255662500858
leaf_count=10 22 20 10 15 28
internal_value=0 0.0330632 -0.0478534 -0.0836028 -0.0825809
internal_weight=0 4.12244 2.50898 1.70317 1.13508
internal_count=105 42 63 53 43
is_linear=0
shrinkage=0.1


Tree=155
num_leaves=6
num_cat=0
split_feature=34 45 49 7 17
split_gain=0.693288 1.05222 0.148565 0.00487615 0.000162278
threshold=0.026715991880696222 -0.035268719946622146 -0.073722629418955743 -0.12574307728744971 0.042284291077706086
decision_type=2 2 2 2 2
left_child=1 -1 -3 -4 -5
right_child=-2 2 3 4 -6
leaf_value=0.049364659675189285 0.047850974985385979 -0.030382814233274564 -0.09687776965037001 -0.083094937326518806 -0.085720212826761469
leaf_weight=1.1479850215837362 1.9955223025754092 0.6421306058764461 0.46043553482741129 0.50115734292194214 0.44411227898672223
leaf_count=18 29 12 5 29 12
internal_value=0 -0.0272728 -0.0702345 -0.0884389 -0.0843284
internal_weight=0 3.19582 2.04784 1.40571 0.94527
internal_count=105 76 58 46 41
is_linear=0
shrinkage=0.1


Tree=156
num_leaves=5
num_cat=0
split_feature=0 4 106 4
split_gain=0.907461 0.866299 0.894063 0.000169694
threshold=-0.097131660984410353 0.1676616411931631 -0.01913677858698053 0.069355422951216314
decision_type=2 2 2 2
left_child=3 2 -2 -1
right_child=1 -3 -4 -5
leaf_value=-0.081655675744622305 0.058961296499896391 0.082439308615072412 -0.053376430925707721 -0.084207035704048694
leaf_weight=0.54073032084852435 1.1460327967070041 1.5069577135145662 1.8555238125845792 0.50336528569459915
leaf_count=29 16 11 36 13
internal_value=0 0.020575 -0.0104844 -0.0828857
internal_weight=0 4.50851 3.00156 1.0441
internal_count=105 63 52 42
is_linear=0
shrinkage=0.1


Tree=157
num_leaves=4
num_cat=0
split_feature=2 17 7
split_gain=0.822945 0.83547 0.72977
threshold=0.15360715134319175 0.036912858847011391 0.0096163496687399538
decision_type=2 2 2
left_child=1 2 -1
right_child=-2 -3 -4
leaf_value=-0.084232331111651265 -0.084056607191698759 0.07618761776536162 0.023376375140865453
leaf_weight=0.98526396183297071 0.96881227055564512 1.5666669984348116 1.7488810326904056
leaf_count=28 29 20 28
internal_value=0 0.0179622 -0.015401
internal_weight=0 4.30081 2.73414
internal_count=105 76 56
is_linear=0
shrinkage=0.1


Tree=158
num_leaves=4
num_cat=0
split_feature=0 9 22
split_gain=1.16819 0.000166836 1.16523e-05
threshold=-0.11507784154194071 -0.10152490254220621 0.025802200056104719
decision_type=2 2 2
left_child=-1 -2 -3
right_child=1 2 -4
leaf_value=0.024979304372475385 -0.083868685493267578 -0.08128904322219449 -0.082019886951063159
leaf_weight=3.6679001525044441 0.48604839295148827 0.5555710936896503 0.35920053208246827
leaf_count=39 14 36 16
internal_value=0 -0.0823715 -0.081576
internal_weight=0 1.40082 0.914772
internal_count=105 66 52
is_linear=0
shrinkage=0.1


Tree=159
num_leaves=5
num_cat=0
split_feature=73 7 38 85
split_gain=0.952908 0.756076 0.781527 0.323538
threshold=0.01377016315329462 -0.026156352152101752 0.038287321879837348 -0.010806879547880345
decision_type=2 2 2 2
left_child=1 -1 -3 -2
right_child=3 2 -4 -5
leaf_value=0.067412076054552336 -0.0081723416192677444 -0.084004837023564913 0.050354703983654041 -0.087150762832757994
leaf_weight=2.3438886683434248 0.92495195753872428 0.90418601082637884 0.83061107154935598 1.1809257999993859
leaf_count=24 19 28 12 22
internal_value=0 0.0303714 -0.0196742 -0.0524615
internal_weight=0 4.07869 1.7348 2.10588
internal_count=105 64 40 41
is_linear=0
shrinkage=0.1


Tree=160
num_leaves=4
num_cat=0
split_feature=14 31 0
split_gain=0.632609 0.930893 0.302466
threshold=-0.040601832271735257 0.017789007807549811 0.26365547581212967
decision_type=2 2 2
left_child=-1 2 -2
right_child=1 -3 -4
leaf_value=-0.068435840500949627 0.022634131245353746 -0.04622759385808177 0.09235970380849251
leaf_weight=1.0229636598378418 1.2839989943895496 1.3691204627975819 1.2069662809371946
leaf_count=30 37 28 10
internal_value=0 0.0200115 0.0564188
internal_weight=0 3.86009 2.49097
internal_count=105 75 47
is_linear=0
shrinkage=0.1


Tree=161
num_leaves=4
num_cat=0
split_feature=13 14 3
split_gain=0.838416 0.752537 0.832396
threshold=-0.034031563578685427 -0.040601832271735257 0.073174513282405415
decision_type=2 2 2
left_child=-1 -2 -3
right_child=1 2 -4
leaf_value=-0.072753148142166421 0.077911098652889837 -0.083820789140614194 0.035537996229187248
leaf_weight=1.1839510770514605 1.5378037076443436 0.96213815361261401 1.4877514233812688
leaf_count=30 20 31 24
internal_value=0 0.0230801 -0.0113374
internal_weight=0 3.98769 2.44989
internal_count=105 75 55
is_linear=0
shrinkage=0.1


Tree=162
num_leaves=5
num_cat=0
split_feature=15 9 79 4
split_gain=0.738925 0.773707 0.0928927 0.000121001
threshold=-0.095558520273718625 0.037553879838103994 -0.060793216862151438 0.086734817393807742
decision_type=2 2 2 2
left_child=-1 2 -2 -4
right_child=1 -3 3 -5
leaf_value=0.065446633497387038 -0.033248275424548383 0.023280581071766226 -0.082121475440168484 -0.084060411780838618
leaf_weight=1.2651459462940691 0.52624322194606055 1.8071382353082297 0.76232593180611752 0.557036517187953
leaf_count=12 15 31 35 12
internal_value=0 -0.0232301 -0.0687713 -0.0829401
internal_weight=0 3.65274 1.84561 1.31936
internal_count=105 93 62 47
is_linear=0
shrinkage=0.1


Tree=163
num_leaves=4
num_cat=0
split_feature=8 0 9
split_gain=1.0507 0.674164 0.0319408
threshold=-0.062669148501347194 -0.37915273716409809 0.017753438312338662
decision_type=2 2 2
left_child=-1 -2 -3
right_child=1 2 -4
leaf_value=0.049416293621511571 0.030523731270348183 -0.059979494365962643 -0.08733767908421021
leaf_weight=2.0174257643520832 0.81303287297487292 0.64203951694071282 1.2726440674159674
leaf_count=39 10 26 30
internal_value=0 -0.045768 -0.0781638
internal_weight=0 2.72772 1.91468
internal_count=105 66 56
is_linear=0
shrinkage=0.1


Tree=164
num_leaves=5
num_cat=0
split_feature=10 60 14 82
split_gain=0.867366 0.810683 0.693258 0.0081565
threshold=0.10978419731134115 -0.052709504774279332 -0.040601832271735257 0.0036186978340928227
decision_type=2 2 2 2
left_child=1 -1 -3 -4
right_child=-2 2 3 -5
leaf_value=0.049668170117479669 0.061521933711942534 0.024256659908919481 -0.0735855048819717 -0.08639748429523067
leaf_weight=1.1230428656563161 1.7417541258037088 0.88282889313995827 0.81269317911937911 1.2787899132817981
leaf_count=17 16 22 27 23
internal_value=0 -0.0227202 -0.0500526 -0.0814191
internal_weight=0 4.09735 2.97431 2.09148
internal_count=105 89 72 50
is_linear=0
shrinkage=0.1


Tree=165
num_leaves=6
num_cat=0
split_feature=0 31 0 59 74
split_gain=0.593216 0.377727 0.000191443 2.16667e-05 2.52822e-06
threshold=0.1670416602423839 -0.085019932255656835 0.10238502889270189 0.039105616277314917 -1.0000000180025095e-35
decision_type=2 2 2 2 2
left_child=1 -1 3 4 -3
right_child=-2 2 -4 -5 -6
leaf_value=0.039040872883981885 0.025405304058710138 -0.080614388840258011 -0.084197099754059021 -0.082025710526335394 -0.081077845540901139
leaf_weight=0.33948686881922174 3.1733977328985929 0.20232105930335786 0.32265172665938735 0.25323792384006083 0.28144164476543676
leaf_count=8 31 25 7 13 21
internal_value=0 -0.0527561 -0.0821657 -0.0812763 -0.080884
internal_weight=0 1.39914 1.05965 0.737001 0.483763
internal_count=105 74 66 59 46
is_linear=0
shrinkage=0.1


Tree=166
num_leaves=5
num_cat=0
split_feature=0 4 3 27
split_gain=0.764742 0.669219 0.778452 8.82117e-05
threshold=-0.097131660984410353 0.1676616411931631 0.118518181156946 -0.025830501367647859
decision_type=2 2 2 2
left_child=3 2 -2 -1
right_child=1 -3 -4 -5
leaf_value=-0.083394411884911257 -0.058355005290841949 0.078763640832313978 0.051070914368390966 -0.081401933085507902
leaf_weight=0.44175846502184868 1.4357942910864956 1.3075189590454099 1.1880618929862974 0.44706251705065359
leaf_count=14 38 11 14 28
internal_value=0 0.0203172 -0.00880779 -0.0823922
internal_weight=0 3.93138 2.62386 0.888821
internal_count=105 63 52 42
is_linear=0
shrinkage=0.1


Tree=167
num_leaves=5
num_cat=0
split_feature=4 14 9 99
split_gain=0.665468 0.578181 0.817548 5.38802e-05
threshold=-0.05841258491150611 0.050863132285488118 0.064325492918097985 0.055023942021069062
decision_type=2 2 2 2
left_child=3 2 -2 -1
right_child=1 -3 -4 -5
leaf_value=-0.081296407076236754 -0.074108444074960381 0.069392591973079162 0.042355964907219934 -0.082915588604678014
leaf_weight=0.44604840967804182 1.1349303200840957 1.3516009617596862 1.285361338406801 0.38110111467540264
leaf_count=30 32 15 16 12
internal_value=0 0.017001 -0.0122569 -0.0820424
internal_weight=0 3.77189 2.42029 0.82715
internal_count=105 63 48 42
is_linear=0
shrinkage=0.1


Tree=168
num_leaves=5
num_cat=0
split_feature=0 31 1 2
split_gain=0.961303 0.000120329 1.43291e-05 3.22388e-06
threshold=-0.11507784154194071 0.078051894296742988 0.15196225862428056 0.061518186009738705
decision_type=2 2 2 2
left_child=-1 2 3 -2
right_child=1 -3 -4 -5
leaf_value=0.023103668184259053 -0.080855475274423813 -0.083591565922963268 -0.081964061339420108 -0.081353019087927747
leaf_weight=3.2517222799360752 0.27075545233674325 0.36599324410781264 0.29792704619467258 0.25092509668320417
leaf_count=39 26 13 13 14
internal_value=0 -0.082084 -0.0814108 -0.0810948
internal_weight=0 1.1856 0.819608 0.521681
internal_count=105 66 53 40
is_linear=0
shrinkage=0.1


Tree=169
num_leaves=6
num_cat=0
split_feature=5 10 27 49 7
split_gain=0.826379 0.759797 0.145859 0.000172695 2.20718e-05
threshold=0.050434169951909323 0.13853876703941084 -0.056195346887044369 0.042275238706678701 1.0000000180025095e-35
decision_type=2 2 2 2 2
left_child=1 2 -1 4 -4
right_child=-2 -3 3 -5 -6
leaf_value=-0.020556769710330079 0.041349068715100752 0.05180746646849467 -0.082588870487467908 -0.084215984447708628 -0.081622367537398419
leaf_weight=0.49863341357559021 2.7237463854253292 0.72246528789401043 0.39103193022310734 0.54975459538400173 0.597056919708848
leaf_count=13 27 6 13 13 33
internal_value=0 -0.0362992 -0.0675561 -0.0827953 -0.0820049
internal_weight=0 2.75894 2.03648 1.53784 0.988089
internal_count=105 78 72 59 46
is_linear=0
shrinkage=0.1


Tree=170
num_leaves=4
num_cat=0
split_feature=29 31 36
split_gain=0.550719 0.592144 0.00246494
threshold=-0.015211938105946546 -0.035503982556304624 -0.033000115779125427
decision_type=2 2 2
left_child=-1 -2 -3
right_child=1 2 -4
leaf_value=0.03560602756551598 0.020346715269750026 -0.092662832666365255 -0.082845509658662164
leaf_weight=2.2761963582597673 0.98987662792205844 0.41167705529369425 0.6752506417687979
leaf_count=39 19 10 37
internal_value=0 -0.0356066 -0.0865638
internal_weight=0 2.0768 1.08693
internal_count=105 66 47
is_linear=0
shrinkage=0.1


Tree=171
num_leaves=4
num_cat=0
split_feature=13 14 37
split_gain=0.68295 0.625861 0.415113
threshold=-0.034031563578685427 -0.015474209594568382 0.015690257041493929
decision_type=2 2 2
left_child=-1 -2 -3
right_child=1 2 -4
leaf_value=-0.070672056788269974 0.057249256508873671 -0.082685340061183277 0.026109090654771475
leaf_weight=1.0198829136788843 2.0762304314412177 0.71346343820914648 0.68979129195213318
leaf_count=30 34 31 10
internal_value=0 0.0223825 -0.0292058
internal_weight=0 3.47949 1.40325
internal_count=105 75 41
is_linear=0
shrinkage=0.1


Tree=172
num_leaves=5
num_cat=0
split_feature=15 5 26 22
split_gain=0.635852 0.613655 0.0577256 0.000171388
threshold=-0.071480558884058812 -0.081424967690506334 -0.036441505886983909 0.023872993206580009
decision_type=2 2 2 2
left_child=-1 -2 -3 -4
right_child=1 2 3 -5
leaf_value=0.057665031841171714 0.020139572160982368 -0.038955240573139066 -0.081613959538875958 -0.084166629784438118
leaf_weight=1.2920013573020694 1.4541236143559215 0.41707567358389486 0.67760342638939641 0.42988684424199164
leaf_count=15 23 15 38 14
internal_value=0 -0.0263357 -0.0706636 -0.0826048
internal_weight=0 2.97869 1.52457 1.10749
internal_count=105 90 67 52
is_linear=0
shrinkage=0.1


Tree=173
num_leaves=4
num_cat=0
split_feature=3 0 9
split_gain=0.907535 0.528155 1.05254
threshold=-0.080206980283326679 -0.37915273716409809 -0.051690248218406835
decision_type=2 2 2
left_child=-1 -2 -3
right_child=1 2 -4
leaf_value=-0.075144082532715761 0.084295604834303539 0.064618949848511839 -0.085348923286610923
leaf_weight=1.2884473144076762 1.0055027473717926 1.0010244185104964 0.87889421684667501
leaf_count=39 19 14 33
internal_value=0 0.0257959 -0.0054936
internal_weight=0 2.88542 1.87992
internal_count=105 66 47
is_linear=0
shrinkage=0.1


Tree=174
num_leaves=5
num_cat=0
split_feature=73 5 100 53
split_gain=0.751624 0.618434 0.731166 0.268551
threshold=0.01377016315329462 0.050434169951909323 0.0030819344584306764 -0.035993857167230081
decision_type=2 2 2 2
left_child=1 2 -1 -2
right_child=3 -3 -4 -5
leaf_value=-0.082930986045030727 -0.0071763389769372412 0.072356562983137085 0.047702419578448618 -0.085599315723294767
leaf_weight=0.79428617004305146 0.79125528084114194 1.7138314992189405 0.9302650704048574 0.97435881150886394
leaf_count=28 17 17 19 24
internal_value=0 0.029814 -0.0124641 -0.0504543
internal_weight=0 3.43838 1.72455 1.76561
internal_count=105 64 47 41
is_linear=0
shrinkage=0.1


Tree=175
num_leaves=5
num_cat=0
split_feature=34 45 27 0
split_gain=0.509535 0.74738 0.110202 0.00154881
threshold=0.026715991880696222 -0.035268719946622146 -0.051073723952693058 0.26365547581212967
decision_type=2 2 2 2
left_child=1 -1 -3 -4
right_child=-2 2 3 -5
leaf_value=0.045108307658520863 0.044424913332321875 -0.027416393533197816 -0.082971170427272992 -0.09048802923443261
leaf_weight=0.89887235360220086 1.6493417029269037 0.44473671261221159 0.61100591975264251 0.49713807180523872
leaf_count=18 29 14 39 5
internal_value=0 -0.0274609 -0.069467 -0.0863434
internal_weight=0 2.45175 1.55288 1.10814
internal_count=105 76 58 44
is_linear=0
shrinkage=0.1


Tree=176
num_leaves=5
num_cat=0
split_feature=7 37 19 0
split_gain=0.611915 0.728022 0.113646 0.000133839
threshold=0.097717276325641589 0.036169536678497996 -0.022339652939146481 0.1670416602423839
decision_type=2 2 2 2
left_child=1 2 -1 -4
right_child=-2 -3 3 -5
leaf_value=-0.027141450920872712 0.052211276914675586 0.041969160184747306 -0.082163304089506006 -0.084292309204763397
leaf_weight=0.51861426234245289 1.5544842611998317 0.98126993142068375 0.56370136234909318 0.62008829414844513
leaf_count=17 23 18 33 14
internal_value=0 -0.0266341 -0.0661771 -0.0832785
internal_weight=0 2.68367 1.7024 1.18379
internal_count=105 82 64 47
is_linear=0
shrinkage=0.1


Tree=177
num_leaves=4
num_cat=0
split_feature=3 14 53
split_gain=0.549709 0.637429 0.0391912
threshold=-0.1348205900965288 0.050863132285488118 -0.033276047635842465
decision_type=2 2 2
left_child=-1 2 -2
right_child=1 -3 -4
leaf_value=0.045318501441082293 -0.049544477283624766 0.032020379616193299 -0.084141394581176476
leaf_weight=1.5593911735340955 0.49478644598275456 0.9725544275715946 0.9680093815550207
leaf_count=27 21 24 33
internal_value=0 -0.0307233 -0.0724391
internal_weight=0 2.43535 1.4628
internal_count=105 78 54
is_linear=0
shrinkage=0.1


Tree=178
num_leaves=5
num_cat=0
split_feature=14 2 99 25
split_gain=0.7852 0.63 0.234633 0.000769872
threshold=0.028949686508723944 0.15360715134319175 0.022025093587253571 0.034939263140873665
decision_type=2 2 2 2
left_child=1 3 -2 -1
right_child=2 -3 -4 -5
leaf_value=-0.083053312481875849 0.0088688241516143608 0.027900912995492345 0.084422057094250533 -0.087769508512950289
leaf_weight=0.70179430092684991 0.82245351653546073 0.76060388516634692 0.82170391222462058 0.68296835059300065
leaf_count=35 28 16 12 14
internal_value=0 -0.0452177 0.0466282 -0.0853794
internal_weight=0 2.14537 1.64416 1.38476
internal_count=105 65 40 49
is_linear=0
shrinkage=0.1


Tree=179
num_leaves=4
num_cat=0
split_feature=34 29 9
split_gain=0.667578 0.808753 0.0399478
threshold=-0.051280574421425064 0.015754337129525241 -1.0000000180025095e-35
decision_type=2 2 2
left_child=-1 2 -2
right_child=1 -3 -4
leaf_value=0.056324891875075035 -0.085396752940912424 0.026119811389896937 -0.053327111439830488
leaf_weight=1.5331081105396149 1.0159418908879159 1.6389466053806243 0.62884958507493172
leaf_count=21 26 36 22
internal_value=0 -0.0235962 -0.0731356
internal_weight=0 3.28374 1.64479
internal_count=105 84 48
is_linear=0
shrinkage=0.1


Tree=180
num_leaves=6
num_cat=0
split_feature=0 66 0 23 6
split_gain=0.484016 0.289964 0.000102699 8.22225e-06 1.62701e-06
threshold=0.1670416602423839 -0.10087073824539339 0.10238502889270189 -0.036466216818731016 -0.039495241133014648
decision_type=2 2 2 2 2
left_child=1 -1 3 -3 -5
right_child=-2 2 -4 4 -6
leaf_value=0.033247392139086999 0.02445900713936932 -0.081508104655489008 -0.083388063307772028 -0.080952496273760444 -0.080545421264875849
leaf_weight=0.29342863848432921 2.7021857369691133 0.21627039555460237 0.25951064098626375 0.18855276168324075 0.20485916663892523
leaf_count=6 31 15 7 16 30
internal_value=0 -0.0527054 -0.081722 -0.0810128 -0.0807405
internal_weight=0 1.16262 0.869193 0.609682 0.393412
internal_count=105 74 68 61 46
is_linear=0
shrinkage=0.1


Tree=181
num_leaves=4
num_cat=0
split_feature=13 14 3
split_gain=0.569672 0.508677 0.600316
threshold=-0.034031563578685427 -0.040601832271735257 0.073174513282405415
decision_type=2 2 2
left_child=-1 -2 -3
right_child=1 2 -4
leaf_value=-0.069601621314348078 0.072720735793767727 -0.082821717920852522 0.033616937020697603
leaf_weight=0.87378928717225823 1.2008318803273148 0.71383736212737803 1.1660548872314391
leaf_count=30 20 31 24
internal_value=0 0.0218791 -0.0105974
internal_weight=0 3.08072 1.87989
internal_count=105 75 55
is_linear=0
shrinkage=0.1


Tree=182
num_leaves=4
num_cat=0
split_feature=23 8 42
split_gain=0.535079 0.469928 5.2925e-05
threshold=0.027820820260351705 -0.02984425642502913 0.026739595151629523
decision_type=2 2 2
left_child=1 2 -1
right_child=-2 -3 -4
leaf_value=-0.081634448704759416 0.047706328378392893 0.0084459935245080331 -0.083105767331154518
leaf_weight=0.48957965383306201 1.4578052600845692 1.3652493972331285 0.4883505878970027
leaf_count=29 24 36 16
internal_value=0 -0.0294559 -0.0823692
